"Plaque Gravee-1,,Convert to Abs(""Plaque Gravee-1""):Plaque Gravee-1,,"
Wavelength (nm),%R,Wavelength (nm),Abs,
2500,34.33504486,2500,0.4642623961,
2499,34.30847168,2499,0.4645986259,
2498,34.26789474,2498,0.4651125968,
2497,34.22625732,2497,0.4656406045,
2496,34.27822113,2496,0.4649817348,
2495,34.15545654,2495,0.4665399194,
2494,34.17509079,2494,0.4662902951,
2493,34.14259338,2493,0.4667035043,
2492,34.11735153,2492,0.467024684,
2491,34.09107971,2491,0.4673592448,
2490,34.06094742,2490,0.4677433074,
2489,34.1006012,2489,0.4672379792,
2488,34.03513336,2488,0.4680725336,
2487,34.07978821,2487,0.4675031304,
2486,34.08366013,2486,0.467453748,
2485,33.97385406,2485,0.4688551724,
2484,34.01078415,2484,0.4683833718,
2483,33.88097763,2483,0.4700440466,
2482,34.00074005,2482,0.468511641,
2481,33.89390182,2481,0.4698784351,
2480,33.91827011,2480,0.4695663154,
2479,33.89579773,2479,0.4698541462,
2478,33.85563278,2478,0.4703690708,
2477,33.94840622,2477,0.4691806138,
2476,33.87194824,2476,0.4701598287,
2475,33.82112503,2475,0.4708119631,
2474,33.8135376,2474,0.4709094167,
2473,33.78116608,2473,0.4713253677,
2472,33.8384552,2472,0.4705894887,
2471,33.78577423,2471,0.4712661207,
2470,33.82286835,2470,0.4707895815,
2469,33.76547241,2469,0.471527189,
2468,33.7457695,2468,0.4717806876,
2467,33.6972847,2467,0.4724051058,
2466,33.74378586,2466,0.4718061686,
2465,33.68070984,2465,0.4726187587,
2464,33.72402954,2464,0.4720605314,
2463,33.67647552,2463,0.4726733565,
2462,33.65703964,2462,0.4729241133,
2461,33.69556808,2461,0.472427249,
2460,33.70154953,2460,0.4723501205,
2459,33.67715836,2459,0.4726645648,
2458,33.58529663,2458,0.4738507867,
2457,33.58683777,2457,0.4738308787,
2456,33.63209534,2456,0.4732460678,
2455,33.61241913,2455,0.4735002518,
2454,33.57646942,2454,0.4739649594,
2453,33.59024048,2453,0.4737868905,
2452,33.54176712,2452,0.4744140804,
2451,33.55243683,2451,0.4742759168,
2450,33.55572891,2450,0.4742333293,
2449,33.51902771,2449,0.4747085869,
2448,33.52875519,2448,0.4745825827,
2447,33.47157288,2447,0.4753238857,
2446,33.46308136,2446,0.4754340649,
2445,33.49702835,2445,0.4749937057,
2444,33.45158768,2444,0.4755832851,
2443,33.44841766,2443,0.4756244123,
2442,33.43609619,2442,0.4757844508,
2441,33.45053864,2441,0.4755969048,
2440,33.4513855,2440,0.4755859077,
2439,33.39774323,2439,0.4762828946,
2438,33.40950775,2438,0.4761299193,
2437,33.36787033,2437,0.4766715169,
2436,33.37410736,2436,0.4765903354,
2435,33.37264252,2435,0.4766093791,
2434,33.35207748,2434,0.4768771231,
2433,33.38241577,2433,0.4764822423,
2432,33.33773041,2432,0.4770639837,
2431,33.32921982,2431,0.4771748781,
2430,33.32528305,2430,0.4772261679,
2429,33.26014709,2429,0.4780758619,
2428,33.27625275,2428,0.4778655767,
2427,33.2612114,2427,0.4780619144,
2426,33.24494171,2426,0.4782744348,
2425,33.26471329,2425,0.4780161977,
2424,33.20988464,2424,0.4787326455,
2423,33.2303009,2423,0.4784657061,
2422,33.25244141,2422,0.4781764448,
2421,33.21007538,2421,0.4787301421,
2420,33.21193314,2420,0.4787058234,
2419,33.12543869,2419,0.4798383415,
2418,33.11993408,2418,0.4799105227,
2417,33.18887711,2417,0.4790074527,
2416,33.10435867,2416,0.4801147878,
2415,33.09695435,2415,0.4802119732,
2414,33.07322311,2414,0.4805234969,
2413,33.0834465,2413,0.4803892374,
2412,33.05149841,2412,0.4808088243,
2411,33.0294075,2411,0.4810992181,
2410,33.03694153,2410,0.4810001552,
2409,33.02851105,2409,0.4811110198,
2408,33.02100372,2408,0.4812097251,
2407,32.98429871,2407,0.4816927612,
2406,33.00933075,2406,0.4813632965,
2405,32.9496994,2405,0.4821485579,
2404,32.94858932,2404,0.482163161,
2403,32.91013336,2403,0.4826703668,
2402,32.89760971,2402,0.4828356504,
2401,32.90768433,2401,0.4827026725,
2400,32.87260056,2400,0.4831659496,
2399,32.85666275,2399,0.4833765328,
2398,32.875103,2398,0.483132869,
2397,32.84601593,2397,0.4835172892,
2396,32.81665039,2396,0.4839057326,
2395,32.81427765,2395,0.4839371741,
2394,32.80073929,2394,0.4841163456,
2393,32.79926682,2393,0.4841358662,
2392,32.79390717,2392,0.4842068553,
2391,32.77577591,2391,0.4844470322,
2390,32.69709396,2390,0.4854908586,
2389,32.75440216,2389,0.4847303033,
2388,32.71792221,2388,0.485214293,
2387,32.69848251,2387,0.4854724109,
2386,32.65846252,2386,0.4860042632,
2385,32.63188553,2385,0.4863578379,
2384,32.64937973,2384,0.486125052,
2383,32.60984802,2383,0.4866512418,
2382,32.60848999,2382,0.486669302,
2381,32.61310959,2381,0.48660779,
2380,32.55944061,2380,0.4873230755,
2379,32.56349182,2379,0.4872690141,
2378,32.53712082,2378,0.4876208901,
2377,32.52991867,2377,0.4877170324,
2376,32.49515152,2376,0.4881814122,
2375,32.50617218,2375,0.4880341887,
2374,32.52309418,2374,0.4878081381,
2373,32.46649551,2373,0.4885645807,
2372,32.44544601,2372,0.4888462424,
2371,32.44841766,2371,0.4888064861,
2370,32.42687988,2370,0.4890948534,
2369,32.36191177,2369,0.4899658263,
2368,32.40023041,2368,0.489451915,
2367,32.36942291,2367,0.4898650348,
2366,32.30620575,2366,0.4907140434,
2365,32.32103729,2365,0.4905147254,
2364,32.36104202,2364,0.4899775088,
2363,32.29059982,2363,0.4909239113,
2362,32.28125763,2362,0.4910495281,
2361,32.25888443,2361,0.4913506806,
2360,32.26554871,2360,0.491260916,
2359,32.23869705,2359,0.4916225076,
2358,32.19886017,2358,0.4921594858,
2357,32.19562912,2357,0.4922031164,
2356,32.14199448,2356,0.4929271638,
2355,32.15545654,2355,0.4927453101,
2354,32.12490463,2354,0.4931581616,
2353,32.11647415,2353,0.4932721555,
2352,32.09978485,2352,0.4934979081,
2351,32.06100464,2351,0.494022876,
2350,32.0697937,2350,0.4939038455,
2349,32.06283188,2349,0.4939981401,
2348,32.04589081,2348,0.4942276478,
2347,32.00299835,2347,0.4948093295,
2346,31.98146248,2346,0.4951016903,
2345,31.93042564,2345,0.4957952797,
2344,31.91992378,2344,0.4959381521,
2343,31.91376305,2343,0.496021986,
2342,31.89672852,2342,0.4962538481,
2341,31.85288239,2341,0.4968512654,
2340,31.81997871,2340,0.4973001182,
2339,31.80619431,2339,0.4974882901,
2338,31.7987709,2338,0.4975896776,
2337,31.76639748,2337,0.4980320334,
2336,31.77161598,2336,0.4979607165,
2335,31.71690369,2335,0.4987092018,
2334,31.69510078,2334,0.4990078509,
2333,31.68404961,2333,0.4991593063,
2332,31.66192245,2332,0.4994627237,
2331,31.61822891,2331,0.5000624657,
2330,31.60848999,2330,0.5001962781,
2329,31.57893753,2329,0.5006024837,
2328,31.55878258,2328,0.5008797646,
2327,31.50325394,2327,0.5016446114,
2326,31.49596405,2326,0.5017451048,
2325,31.47843552,2325,0.5019868612,
2324,31.44106865,2324,0.5025026798,
2323,31.40551758,2323,0.5029940605,
2322,31.38894081,2322,0.5032233596,
2321,31.35683823,2321,0.5036677122,
2320,31.35041809,2320,0.5037566423,
2319,31.29075432,2319,0.5045839548,
2318,31.27486038,2318,0.5048046112,
2317,31.2714138,2317,0.5048524737,
2316,31.25118256,2316,0.5051335096,
2315,31.22552299,2315,0.505490303,
2314,31.18564796,2314,0.5060452223,
2313,31.16636658,2313,0.5063138604,
2312,31.13279343,2312,0.5067819357,
2311,31.0857563,2311,0.5074385405,
2310,31.0958271,2310,0.5072978735,
2309,31.04318047,2309,0.508033812,
2308,31.0113163,2308,0.508479774,
2307,30.99403,2307,0.5087219477,
2306,31.02057838,2306,0.5083500743,
2305,30.97091293,2305,0.5090460181,
2304,30.94948006,2304,0.509346664,
2303,30.92313766,2303,0.5097164512,
2302,30.91262245,2302,0.5098641515,
2301,30.87396622,2301,0.510407567,
2300,30.83682632,2300,0.5109302998,
2299,30.83798599,2299,0.5109139681,
2298,30.7947216,2298,0.5115237236,
2297,30.79157257,2297,0.5115681291,
2296,30.73696518,2296,0.5123389959,
2295,30.71679688,2295,0.5126240849,
2294,30.71850204,2294,0.5125999451,
2293,30.64888191,2293,0.5135853887,
2292,30.65769577,2292,0.5134604573,
2291,30.62715149,2291,0.5138933659,
2290,30.62209511,2290,0.5139651299,
2289,30.56866455,2289,0.5147235394,
2288,30.56126595,2288,0.5148286819,
2287,30.54364014,2287,0.5150792003,
2286,30.5123539,2286,0.5155242682,
2285,30.49572945,2285,0.5157609582,
2284,30.4955101,2284,0.5157641172,
2283,30.45152664,2283,0.5163909197,
2282,30.4118576,2282,0.5169570446,
2281,30.37838554,2281,0.5174353123,
2280,30.39202118,2280,0.5172404051,
2279,30.32849693,2279,0.5181490779,
2278,30.31763458,2278,0.5183047056,
2277,30.32385063,2277,0.5182156563,
2276,30.25385094,2276,0.5192193389,
2275,30.2359848,2275,0.5194758773,
2274,30.23042107,2274,0.5195558071,
2273,30.19774628,2273,0.5200254917,
2272,30.22683907,2272,0.5196072459,
2271,30.12649155,2271,0.5210514665,
2270,30.08296204,2270,0.5216794014,
2269,30.11133957,2269,0.5212699175,
2268,30.0940876,2268,0.5215188265,
2267,30.09999466,2267,0.5214335918,
2266,30.03079033,2266,0.5224332213,
2265,30.00724983,2265,0.5227738023,
2264,29.99120903,2264,0.523006022,
2263,29.9715004,2263,0.5232915282,
2262,29.98627472,2262,0.5230774879,
2261,29.96273422,2261,0.5234185457,
2260,29.8607254,2260,0.5248996615,
2259,29.90732193,2259,0.5242224932,
2258,29.89187241,2258,0.5244469047,
2257,29.8928833,2257,0.5244321823,
2256,29.84016228,2256,0.5251988173,
2255,29.85306168,2255,0.5250111222,
2254,29.83062553,2254,0.5253376365,
2253,29.80280876,2253,0.5257428288,
2252,29.7767334,2252,0.5261229277,
2251,29.75108337,2251,0.5264972448,
2250,29.75637054,2250,0.5264200568,
2249,29.75316429,2249,0.5264668465,
2248,29.73635101,2248,0.5267122984,
2247,29.71825218,2247,0.5269767046,
2246,29.69716835,2246,0.5272849798,
2245,29.71288872,2245,0.5270551443,
2244,29.67245865,2244,0.527646482,
2243,29.62103462,2243,0.5283997655,
2242,29.61225128,2242,0.5285285711,
2241,29.61416626,2241,0.5285004973,
2240,29.60735321,2240,0.5286003947,
2239,29.60292435,2239,0.5286653638,
2238,29.56604958,2238,0.5292066932,
2237,29.52709198,2237,0.529779315,
2236,29.54783821,2236,0.529474318,
2235,29.53475952,2235,0.529666543,
2234,29.50435257,2234,0.5301139355,
2233,29.49557877,2233,0.5302430987,
2232,29.4775238,2232,0.5305089951,
2231,29.47276878,2231,0.5305790901,
2230,29.45922661,2230,0.5307786465,
2229,29.4524231,2229,0.5308789611,
2228,29.44727516,2228,0.5309548974,
2227,29.41723824,2227,0.5313981175,
2226,29.36021996,2226,0.5322406888,
2225,29.41058922,2225,0.5314962864,
2224,29.39409256,2224,0.5317399502,
2223,29.37524986,2223,0.5320184231,
2222,29.36483383,2222,0.5321724415,
2221,29.33582115,2221,0.5326017737,
2220,29.32707405,2220,0.5327312946,
2219,29.31003952,2219,0.5329836011,
2218,29.30511856,2218,0.5330564976,
2217,29.29890823,2217,0.5331485868,
2216,29.26555061,2216,0.5336433053,
2215,29.28536224,2215,0.5333493948,
2214,29.23484993,2214,0.534099102,
2213,29.2686348,2213,0.5335975289,
2212,29.2162838,2212,0.5343750119,
2211,29.22332382,2211,0.5342704058,
2210,29.22112656,2210,0.5343030691,
2209,29.19911766,2209,0.5346302986,
2208,29.20158195,2208,0.5345936418,
2207,29.15167236,2207,0.5353365541,
2206,29.20236969,2206,0.5345818996,
2205,29.15860176,2205,0.5352333188,
2204,29.19852448,2204,0.5346391201,
2203,29.12912369,2203,0.535672605,
2202,29.1483345,2202,0.5353862643,
2201,29.16270828,2201,0.5351721644,
2200,29.14477348,2200,0.5354393125,
2199,29.15276337,2199,0.535320282,
2198,29.11196709,2198,0.5359284282,
2197,29.12074661,2197,0.5357974768,
2196,29.11828995,2196,0.5358341336,
2195,29.11399841,2195,0.535898149,
2194,29.13283348,2194,0.5356172919,
2193,29.14182854,2193,0.5354831815,
2192,29.10923958,2192,0.5359691381,
2191,29.0963974,2191,0.5361607671,
2190,29.12322235,2190,0.5357605815,
2189,29.10421753,2189,0.5360440612,
2188,29.09209824,2188,0.5362249613,
2187,29.05908585,2187,0.5367180705,
2186,29.08831787,2186,0.5362814069,
2185,29.10319519,2185,0.53605932,
2184,29.09949112,2184,0.5361146331,
2183,29.09721756,2183,0.5361485481,
2182,29.11398315,2182,0.5358983874,
2181,29.10108948,2181,0.5360907912,
2180,29.14214516,2180,0.5354784727,
2179,29.08957863,2179,0.5362625718,
2178,29.08391571,2178,0.5363470912,
2177,29.08698082,2177,0.5363013744,
2176,29.13876534,2176,0.5355288386,
2175,29.11899376,2175,0.5358236432,
2174,29.09427834,2174,0.5361924171,
2173,29.11771202,2173,0.5358427763,
2172,29.13362694,2172,0.5356054306,
2171,29.09817314,2171,0.536134243,
2170,29.16772079,2170,0.5350974798,
2169,29.14178467,2169,0.5354838967,
2168,29.16643906,2168,0.5351166129,
2167,29.12972641,2167,0.5356636047,
2166,29.17470932,2166,0.5349934697,
2165,29.16015434,2165,0.5352101922,
2164,29.1514492,2164,0.5353398323,
2163,29.18205833,2163,0.5348840952,
2162,29.14403915,2162,0.5354502201,
2161,29.20151329,2161,0.534594655,
2160,29.21062088,2160,0.5344592333,
2159,29.18651772,2159,0.5348177552,
2158,29.19070053,2158,0.5347554684,
2157,29.18341446,2157,0.5348638892,
2156,29.15221786,2156,0.5353283882,
2155,29.23641586,2155,0.5340758562,
2154,29.1842289,2154,0.5348517895,
2153,29.20674324,2153,0.534516871,
2152,29.18427277,2152,0.5348511338,
2151,29.17948723,2151,0.5349223614,
2150,29.23872185,2150,0.5340416431,
2149,29.1912384,2149,0.5347474813,
2148,29.15712357,2148,0.5352553129,
2147,29.21957397,2147,0.5343261361,
2146,29.18530464,2146,0.5348357558,
2145,29.20023537,2145,0.5346136689,
2144,29.20189285,2144,0.5345889926,
2143,29.15340996,2143,0.535310626,
2142,29.17691803,2142,0.534960568,
2141,29.12657928,2141,0.5357105136,
2140,29.18164825,2140,0.5348901749,
2139,29.13188362,2139,0.5356314182,
2138,29.07557487,2138,0.5364716649,
2137,29.13850021,2137,0.5355328321,
2136,29.08733559,2136,0.5362960696,
2135,29.0954628,2135,0.5361747146,
2134,29.04887581,2134,0.5368706584,
2133,29.02296829,2133,0.5372582078,
2132,28.98335457,2132,0.5378513336,
2131,28.99331474,2131,0.5377021432,
2130,28.95254517,2130,0.5383132696,
2129,28.97493744,2129,0.537977457,
2128,28.96642303,2128,0.5381051302,
2127,28.92141342,2127,0.5387805104,
2126,28.9285965,2126,0.538672626,
2125,28.84694862,2125,0.5399001241,
2124,28.86035156,2124,0.5396983624,
2123,28.80144691,2123,0.5405856967,
2122,28.8083992,2122,0.5404808521,
2121,28.76571465,2121,0.5411248207,
2120,28.73230362,2120,0.5416295528,
2119,28.73305893,2119,0.5416181087,
2118,28.73207664,2118,0.5416330099,
2117,28.7145462,2117,0.5418980122,
2116,28.65579224,2116,0.5427876115,
2115,28.60263634,2115,0.5435939431,
2114,28.63117218,2114,0.5431608558,
2113,28.57180023,2113,0.5440624356,
2112,28.56960869,2112,0.544095695,
2111,28.53341484,2111,0.5446462631,
2110,28.50611115,2110,0.5450620055,
2109,28.48430252,2109,0.5453944206,
2108,28.44896889,2108,0.545933485,
2107,28.43200874,2107,0.5461924672,
2106,28.41482162,2106,0.5464550853,
2105,28.36176491,2105,0.5472667813,
2104,28.32658386,2104,0.5478057861,
2103,28.32702637,2103,0.5477989912,
2102,28.33769608,2102,0.5476354361,
2101,28.27937317,2101,0.548530221,
2100,28.26118088,2100,0.5488097072,
2099,28.26624489,2099,0.5487318635,
2098,28.20432281,2098,0.5496843457,
2097,28.17580795,2097,0.550123632,
2096,28.17868805,2096,0.5500792265,
2095,28.14251137,2095,0.550637126,
2094,28.12425995,2094,0.5509188771,
2093,28.13402939,2093,0.5507680774,
2092,28.06194687,2092,0.5518822074,
2091,28.05041695,2091,0.5520606637,
2090,28.04453087,2090,0.5521517992,
2089,28.01573181,2089,0.5525979996,
2088,27.99879646,2088,0.5528606176,
2087,27.95681,2087,0.5535123944,
2086,27.92300224,2086,0.554037869,
2085,27.92069244,2085,0.5540738106,
2084,27.94609451,2084,0.5536788702,
2083,27.88361549,2083,0.5546509027,
2082,27.84675598,2082,0.5552253723,
2081,27.85254097,2081,0.5551351905,
2080,27.80605507,2080,0.5558606386,
2079,27.81541634,2079,0.5557144284,
2078,27.80783081,2078,0.5558328629,
2077,27.72416687,2077,0.5571414828,
2076,27.73800278,2076,0.5569248199,
2075,27.68911171,2075,0.5576909781,
2074,27.70663261,2074,0.5574162602,
2073,27.65733337,2073,0.5581896901,
2072,27.64414597,2072,0.5583968163,
2071,27.61692047,2071,0.558824718,
2070,27.60647011,2070,0.5589891076,
2069,27.56502533,2069,0.5596415997,
2068,27.53959084,2068,0.5600425005,
2067,27.54559517,2067,0.5599478483,
2066,27.49959755,2066,0.5606736541,
2065,27.48533249,2065,0.5608990192,
2064,27.45386887,2064,0.56139642,
2063,27.4359436,2063,0.5616800785,
2062,27.44606209,2062,0.5615199804,
2061,27.42495155,2061,0.5618541241,
2060,27.36876869,2060,0.5627447367,
2059,27.36540413,2059,0.5627981424,
2058,27.35246658,2058,0.5630034804,
2057,27.33516121,2057,0.5632783771,
2056,27.30922699,2056,0.5636906028,
2055,27.29930305,2055,0.5638484359,
2054,27.27033806,2054,0.5643094778,
2053,27.22705269,2053,0.564999342,
2052,27.22093201,2052,0.565097034,
2051,27.20261574,2051,0.5653893352,
2050,27.16282845,2050,0.5660250187,
2049,27.16869164,2049,0.5659312606,
2048,27.12803841,2048,0.5665816069,
2047,27.10214233,2047,0.5669963956,
2046,27.07649231,2046,0.567407608,
2045,27.06390381,2045,0.5676095486,
2044,27.02160835,2044,0.5682888031,
2043,27.02554512,2043,0.5682255626,
2042,26.98505211,2042,0.5688767433,
2041,26.97851944,2041,0.5689818859,
2040,26.96184731,2040,0.5692503452,
2039,26.9210453,2039,0.5699080825,
2038,26.91225052,2038,0.5700500011,
2037,26.87144852,2037,0.5707089305,
2036,26.84758377,2036,0.571094811,
2035,26.82456017,2035,0.5714673996,
2034,26.79885292,2034,0.5718837976,
2033,26.79445076,2033,0.5719551444,
2032,26.75927544,2032,0.5725256205,
2031,26.74647522,2031,0.5727334619,
2030,26.70939636,2030,0.5733359456,
2029,26.68384552,2029,0.5737515688,
2028,26.6623764,2028,0.57410115,
2027,26.62867546,2027,0.5746504068,
2026,26.6217804,2026,0.5747629404,
2025,26.59849167,2025,0.5751429796,
2024,26.57321739,2024,0.575555861,
2023,26.55710793,2023,0.5758191943,
2022,26.5268631,2022,0.5763140917,
2021,26.48689461,2021,0.5769689679,
2020,26.46871758,2020,0.5772671103,
2019,26.44929314,2019,0.5775859356,
2018,26.40879822,2018,0.5782513618,
2017,26.39100838,2017,0.5785440207,
2016,26.38256454,2016,0.5786829591,
2015,26.35190773,2015,0.5791879296,
2014,26.31467056,2014,0.5798020959,
2013,26.28696823,2013,0.5802595019,
2012,26.26841736,2012,0.5805661082,
2011,26.24039078,2011,0.5810297132,
2010,26.21279144,2010,0.5814867616,
2009,26.1790657,2009,0.5820458531,
2008,26.16170883,2008,0.5823338628,
2007,26.15874672,2007,0.5823830366,
2006,26.11528587,2006,0.5831052065,
2005,26.0945282,2005,0.5834505558,
2004,26.06989479,2004,0.583860755,
2003,26.03396416,2003,0.5844596624,
2002,26.01959991,2002,0.5846993923,
2001,26.00893593,2001,0.5848773718,
2000,25.96833992,2000,0.5855557919,
1999,25.94736862,1999,0.5859066844,
1998,25.92665291,1998,0.5862535238,
1997,25.88950348,1997,0.5868762732,
1996,25.88427734,1996,0.5869639516,
1995,25.84424973,1995,0.5876360536,
1994,25.82155228,1994,0.5880176425,
1993,25.80329514,1993,0.5883248448,
1992,25.79630852,1992,0.5884424448,
1991,25.75544167,1991,0.5891309977,
1990,25.74120712,1990,0.5893710852,
1989,25.71306801,1989,0.5898460746,
1988,25.68070221,1988,0.5903930664,
1987,25.6507988,1987,0.5908991098,
1986,25.63363647,1986,0.5911898017,
1985,25.61761665,1985,0.5914612412,
1984,25.6019001,1984,0.5917277932,
1983,25.58850098,1983,0.5919551849,
1982,25.55501556,1982,0.5925238729,
1981,25.5175209,1981,0.5931615233,
1980,25.50846291,1980,0.5933157206,
1979,25.49285889,1979,0.5935814381,
1978,25.47592545,1978,0.5938700438,
1977,25.44517517,1977,0.5943945646,
1976,25.42959213,1976,0.5946606398,
1975,25.4101963,1975,0.594991982,
1974,25.38355064,1974,0.5954476595,
1973,25.35713005,1973,0.5958998799,
1972,25.33250999,1972,0.5963217616,
1971,25.32463455,1971,0.5964568257,
1970,25.29325485,1970,0.5969952941,
1969,25.26474571,1969,0.5974850655,
1968,25.26134491,1968,0.5975435376,
1967,25.23195076,1967,0.5980491638,
1966,25.21732521,1966,0.5983009934,
1965,25.19167709,1965,0.5987429023,
1964,25.17869759,1964,0.5989667177,
1963,25.15222931,1963,0.5994235277,
1962,25.14252663,1962,0.5995910764,
1961,25.11520767,1961,0.6000632644,
1960,25.09501266,1960,0.6004126072,
1959,25.07761765,1959,0.6007137299,
1958,25.05832672,1958,0.6010479331,
1957,25.02938461,1957,0.6015498042,
1956,25.02444077,1956,0.6016356349,
1955,24.98670959,1955,0.6022909284,
1954,24.98412514,1954,0.6023358703,
1953,24.96162605,1953,0.6027271152,
1952,24.95886993,1952,0.6027750969,
1951,24.93506622,1951,0.6031894684,
1950,24.91453934,1950,0.6035471559,
1949,24.90780067,1949,0.6036646366,
1948,24.87352562,1948,0.60426265,
1947,24.85812378,1947,0.6045316458,
1946,24.85614204,1946,0.6045662761,
1945,24.82556915,1945,0.6051008105,
1944,24.80501747,1944,0.605460465,
1943,24.77965546,1943,0.605904758,
1942,24.77603912,1942,0.6059681177,
1941,24.75751114,1941,0.6062930226,
1940,24.73176765,1940,0.6067448258,
1939,24.7132206,1939,0.6070706248,
1938,24.70833015,1938,0.6071565747,
1937,24.6969738,1937,0.6073562503,
1936,24.68103409,1936,0.6076366305,
1935,24.66421509,1935,0.6079326868,
1934,24.64042091,1934,0.6083518863,
1933,24.62496376,1933,0.6086243987,
1932,24.62452316,1932,0.6086321473,
1931,24.61155128,1931,0.6088610291,
1930,24.58504105,1930,0.6093290448,
1929,24.58338928,1929,0.6093582511,
1928,24.56548309,1928,0.6096746922,
1927,24.54690933,1927,0.6100031734,
1926,24.53431702,1926,0.6102260351,
1925,24.51547623,1925,0.6105596423,
1924,24.4931488,1924,0.6109553576,
1923,24.48707581,1923,0.6110630631,
1922,24.46195602,1922,0.6115087867,
1921,24.45661926,1921,0.6116035581,
1920,24.45201683,1920,0.6116853356,
1919,24.42346573,1919,0.6121926904,
1918,24.42090034,1918,0.6122383475,
1917,24.3907547,1917,0.6127747893,
1916,24.38205147,1916,0.6129297614,
1915,24.36533356,1915,0.6132276058,
1914,24.34742928,1914,0.6135469079,
1913,24.33932114,1913,0.6136915088,
1912,24.32963562,1912,0.6138644218,
1911,24.29806709,1911,0.6144282818,
1910,24.2849865,1910,0.6146621108,
1909,24.28022385,1909,0.6147473454,
1908,24.26037407,1908,0.6151025295,
1907,24.24700546,1907,0.6153419018,
1906,24.23141479,1906,0.6156212091,
1905,24.21786118,1905,0.6158642173,
1904,24.21066475,1904,0.6159932613,
1903,24.18858337,1903,0.6163895726,
1902,24.17402649,1902,0.6166509986,
1901,24.15657425,1901,0.6169646382,
1900,24.15563202,1900,0.6169816256,
1899,24.11979294,1899,0.6176264286,
1898,24.10928535,1898,0.6178156734,
1897,24.07418251,1897,0.6184484363,
1896,24.08584785,1896,0.6182380319,
1895,24.06111717,1895,0.6186842322,
1894,24.05245209,1894,0.6188406348,
1893,24.0357914,1893,0.6191415787,
1892,24.02677155,1892,0.6193045974,
1891,24.00638771,1891,0.6196731925,
1890,23.99040222,1890,0.6199624538,
1889,23.99037552,1889,0.6199629903,
1888,23.96706581,1888,0.6203851104,
1887,23.94177055,1887,0.6208437681,
1886,23.94241905,1886,0.6208319664,
1885,23.91038322,1885,0.6214134693,
1884,23.90225601,1884,0.62156111,
1883,23.89612389,1883,0.6216725707,
1882,23.8793869,1882,0.6219768524,
1881,23.87144852,1881,0.6221212149,
1880,23.84701347,1880,0.6225659847,
1879,23.83977699,1879,0.6226977706,
1878,23.81265259,1878,0.6231921911,
1877,23.80418777,1877,0.6233466268,
1876,23.78959846,1876,0.6236128807,
1875,23.77699089,1875,0.6238431334,
1874,23.75248337,1874,0.6242909431,
1873,23.74487877,1873,0.6244300604,
1872,23.72026062,1872,0.6248805523,
1871,23.72501755,1871,0.6247934699,
1870,23.69360542,1870,0.6253688335,
1869,23.66852188,1869,0.6258288622,
1868,23.65458679,1868,0.6260846257,
1867,23.63516617,1867,0.6264412999,
1866,23.62264824,1866,0.6266714334,
1865,23.60983467,1865,0.6269070506,
1864,23.60857201,1864,0.6269302964,
1863,23.57824707,1863,0.6274884939,
1862,23.54898834,1862,0.6280277371,
1861,23.53702545,1861,0.6282484531,
1860,23.52563667,1860,0.6284586191,
1859,23.49968338,1859,0.6289379597,
1858,23.48670197,1858,0.6291779876,
1857,23.47372055,1857,0.6294180751,
1856,23.4509716,1856,0.6298391223,
1855,23.43791008,1855,0.6300811172,
1854,23.42595291,1854,0.6303027272,
1853,23.39993095,1853,0.6307854056,
1852,23.38926697,1852,0.6309834123,
1851,23.37395477,1851,0.631267786,
1850,23.35110664,1850,0.6316925287,
1849,23.33001709,1849,0.6320849657,
1848,23.31566429,1848,0.6323522329,
1847,23.30235481,1847,0.6326001883,
1846,23.28374481,1846,0.6329471469,
1845,23.2715168,1845,0.6331753135,
1844,23.24914932,1844,0.6335929036,
1843,23.22787666,1843,0.6339904666,
1842,23.2123127,1842,0.6342815757,
1841,23.20300865,1841,0.6344556808,
1840,23.18334007,1840,0.6348239779,
1839,23.15638733,1839,0.6353291869,
1838,23.14217377,1838,0.6355958581,
1837,23.12460709,1837,0.6359256506,
1836,23.09505272,1836,0.6364810467,
1835,23.08476257,1835,0.636674583,
1834,23.07244682,1834,0.6369063258,
1833,23.04808426,1833,0.6373651624,
1832,23.02557755,1832,0.6377894282,
1831,23.0194931,1831,0.6379042268,
1830,22.99799156,1830,0.6383100748,
1829,22.98298264,1829,0.6385936141,
1828,22.95983315,1828,0.639031291,
1827,22.93903923,1827,0.6394247413,
1826,22.92477226,1826,0.6396949887,
1825,22.89892197,1825,0.6401849985,
1824,22.8753376,1824,0.6406325102,
1823,22.87023926,1823,0.6407293081,
1822,22.85327148,1822,0.6410515904,
1821,22.83652496,1821,0.6413699985,
1820,22.82095718,1820,0.6416661739,
1819,22.80505371,1819,0.6419689059,
1818,22.77541161,1818,0.6425337791,
1817,22.76196098,1817,0.6427903175,
1816,22.74700546,1816,0.6430757642,
1815,22.73287392,1815,0.643345654,
1814,22.7106781,1814,0.6437699199,
1813,22.69649124,1813,0.6440412998,
1812,22.68033028,1812,0.6443506479,
1811,22.65940666,1811,0.6447514892,
1810,22.64101219,1810,0.6451041698,
1809,22.61561203,1809,0.6455916762,
1808,22.59425926,1808,0.6460018754,
1807,22.57005501,1807,0.6464673877,
1806,22.55781364,1806,0.6467030048,
1805,22.52846336,1805,0.6472684145,
1804,22.51293564,1804,0.6475678682,
1803,22.48997116,1803,0.6480110884,
1802,22.466465,1802,0.6484652758,
1801,22.44754791,1801,0.6488311291,
1800,22.4350071,1800,0.6490737796,
1799,22.40782547,1799,0.6496002674,
1798,22.39360237,1798,0.6498760581,
1797,22.37581635,1797,0.6502211094,
1796,22.35180664,1796,0.6506873369,
1795,22.33136177,1795,0.6510847807,
1794,22.3163414,1794,0.6513770223,
1793,22.30622292,1793,0.651573956,
1792,22.28155708,1792,0.6520544291,
1791,22.25904846,1791,0.6524934173,
1790,22.24353409,1790,0.6527962089,
1789,22.21996117,1789,0.6532567143,
1788,22.20103073,1788,0.6536268592,
1787,22.18532372,1787,0.6539342403,
1786,22.1646347,1786,0.6543394327,
1785,22.147995,1785,0.6546655893,
1784,22.12532997,1784,0.65511024,
1783,22.11244774,1783,0.6553632021,
1782,22.0868721,1782,0.6558657885,
1781,22.07665825,1781,0.6560666561,
1780,22.05776215,1780,0.6564385295,
1779,22.04327202,1779,0.6567239761,
1778,22.01709747,1778,0.6572399139,
1777,22.00644112,1777,0.6574501991,
1776,21.99185181,1776,0.6577382088,
1775,21.97187424,1775,0.6581329107,
1774,21.94828033,1774,0.6585994959,
1773,21.93973732,1773,0.6587685943,
1772,21.91376686,1772,0.6592829823,
1771,21.90665436,1771,0.6594239473,
1770,21.88258553,1770,0.6599013805,
1769,21.86852646,1769,0.6601804495,
1768,21.84668732,1768,0.6606143713,
1767,21.82918358,1767,0.660962522,
1766,21.82387924,1766,0.6610680819,
1765,21.80196762,1765,0.6615043283,
1764,21.78894997,1764,0.6617636681,
1763,21.77137947,1763,0.6621140838,
1762,21.76070213,1762,0.6623271108,
1761,21.73817444,1761,0.662776947,
1760,21.73204422,1760,0.6628994346,
1759,21.71339798,1759,0.663272202,
1758,21.7008419,1758,0.6635234356,
1757,21.68869972,1757,0.6637665033,
1756,21.66596031,1756,0.6642220616,
1755,21.65392113,1755,0.6644634604,
1754,21.63983345,1754,0.6647461057,
1753,21.62411308,1753,0.6650617123,
1752,21.60420799,1752,0.6654616594,
1751,21.59354782,1751,0.6656759977,
1750,21.57555771,1750,0.6660379767,
1749,21.56764221,1749,0.6661973,
1748,21.54677773,1748,0.6666176319,
1747,21.53964424,1747,0.6667614579,
1746,21.51946831,1746,0.6671684384,
1745,21.50570297,1745,0.6674463749,
1744,21.49167442,1744,0.6677297354,
1743,21.48287964,1743,0.667907536,
1742,21.45998001,1742,0.6683706641,
1741,21.4518261,1741,0.6685357094,
1740,21.43566322,1740,0.6688630581,
1739,21.41894913,1739,0.6692018509,
1738,21.40904045,1738,0.6694027781,
1737,21.39413834,1737,0.6697052121,
1736,21.37348557,1736,0.67012465,
1735,21.37032318,1735,0.6701889038,
1734,21.34794807,1734,0.6706438661,
1733,21.33182526,1733,0.6709719896,
1732,21.32524681,1732,0.6711059213,
1731,21.30837059,1731,0.6714497805,
1730,21.29719925,1730,0.6716775298,
1729,21.27884674,1729,0.6720519066,
1728,21.258955,1728,0.6724581122,
1727,21.23043633,1727,0.6730410457,
1726,21.22921562,1726,0.6730660796,
1725,21.22360229,1725,0.6731809378,
1724,21.21861076,1724,0.6732830405,
1723,21.19037819,1723,0.6738612652,
1722,21.17159843,1722,0.6742463708,
1721,21.1369648,1721,0.6749573946,
1720,21.14158058,1720,0.674862504,
1719,21.13146019,1719,0.6750704646,
1718,21.10743713,1718,0.6755645275,
1717,21.08646393,1717,0.675996244,
1716,21.08004761,1716,0.6761284471,
1715,21.05659866,1715,0.6766117811,
1714,21.04061317,1714,0.6769416332,
1713,21.01931,1713,0.6773815751,
1712,21.00829124,1712,0.6776092649,
1711,20.99312019,1711,0.6779230237,
1710,20.9684639,1710,0.6784333587,
1709,20.9578743,1709,0.6786527634,
1708,20.94107056,1708,0.6790010929,
1707,20.91500664,1707,0.6795420051,
1706,20.90498734,1706,0.6797500849,
1705,20.89141846,1705,0.6800320745,
1704,20.87540245,1704,0.6803651452,
1703,20.84793854,1703,0.680936873,
1702,20.83353233,1702,0.6812371016,
1701,20.81996727,1701,0.6815199256,
1700,20.79920387,1700,0.681953311,
1699,20.78588104,1699,0.6822315454,
1698,20.77574348,1698,0.68244344,
1697,20.74163055,1697,0.6831570864,
1696,20.73757172,1696,0.6832420826,
1695,20.7162056,1695,0.6836897731,
1694,20.69771957,1694,0.6840775013,
1693,20.68648148,1693,0.6843133569,
1692,20.66788483,1692,0.6847039461,
1691,20.64538193,1691,0.6851770878,
1690,20.62682724,1690,0.6855675578,
1689,20.61843109,1689,0.6857444048,
1688,20.59746933,1688,0.6861861348,
1687,20.57477188,1687,0.6866649389,
1686,20.56255341,1686,0.6869229674,
1685,20.5409565,1685,0.6873793006,
1684,20.52948952,1684,0.6876218319,
1683,20.51478386,1683,0.6879330873,
1682,20.49173737,1682,0.6884212494,
1681,20.4694767,1681,0.6888932586,
1680,20.45474052,1680,0.6892060041,
1679,20.44735336,1679,0.6893628836,
1678,20.41857719,1678,0.6899745464,
1677,20.41475296,1677,0.6900558472,
1676,20.38644791,1676,0.6906584501,
1675,20.3716259,1675,0.6909742951,
1674,20.35032654,1674,0.6914286017,
1673,20.33487892,1673,0.6917583942,
1672,20.32036781,1672,0.6920684576,
1671,20.30409431,1671,0.6924163699,
1670,20.27965355,1670,0.6929394603,
1669,20.27943993,1669,0.6929440498,
1668,20.24785042,1668,0.693621099,
1667,20.24059105,1667,0.6937767863,
1666,20.21570587,1666,0.6943110824,
1665,20.20116997,1665,0.6946234703,
1664,20.18460846,1664,0.6949796677,
1663,20.16794205,1663,0.695338428,
1662,20.14249039,1662,0.6958868504,
1661,20.13299942,1661,0.6960915327,
1660,20.11265564,1660,0.6965305805,
1659,20.10139465,1659,0.6967737675,
1658,20.07172394,1658,0.6974153519,
1657,20.06672859,1657,0.6975234151,
1656,20.04537773,1656,0.6979857683,
1655,20.03026199,1655,0.6983133554,
1654,20.01928711,1654,0.6985514164,
1653,19.99993324,1653,0.6989714503,
1652,19.97006989,1652,0.6996204257,
1651,19.96750641,1651,0.699676156,
1650,19.95134735,1650,0.7000277638,
1649,19.92036819,1649,0.7007026076,
1648,19.91494942,1648,0.7008208036,
1647,19.89136314,1647,0.7013354301,
1646,19.8743248,1646,0.7017076015,
1645,19.8629055,1645,0.7019572258,
1644,19.83934021,1644,0.7024727464,
1643,19.82719803,1643,0.7027386427,
1642,19.81062698,1642,0.7031017542,
1641,19.78790665,1641,0.7036001682,
1640,19.7663517,1640,0.7040734887,
1639,19.76339149,1639,0.7041385174,
1638,19.73826599,1638,0.7046909928,
1637,19.72367668,1637,0.7050121427,
1636,19.70294952,1636,0.7054687142,
1635,19.6801281,1635,0.7059720755,
1634,19.67910004,1634,0.7059947848,
1633,19.64950562,1633,0.7066483498,
1632,19.63366699,1632,0.7069985867,
1631,19.62378693,1631,0.7072172165,
1630,19.5992012,1630,0.7077616453,
1629,19.58215332,1629,0.7081395388,
1628,19.56443596,1628,0.7085326314,
1627,19.55862045,1627,0.7086617947,
1626,19.53016472,1626,0.7092940807,
1625,19.51903915,1625,0.7095415592,
1624,19.50401878,1624,0.7098758817,
1623,19.48768616,1623,0.7102397084,
1622,19.46975327,1622,0.7106395364,
1621,19.44577217,1621,0.7111747861,
1620,19.44247246,1620,0.711248517,
1619,19.41020775,1619,0.7119697928,
1618,19.40481758,1618,0.7120904326,
1617,19.38079834,1617,0.712628305,
1616,19.36863327,1616,0.7129009962,
1615,19.34497452,1615,0.7134318352,
1614,19.33037567,1614,0.7137596607,
1613,19.32160759,1613,0.7139567733,
1612,19.2971611,1612,0.7145065665,
1611,19.28134346,1611,0.7148627043,
1610,19.2721138,1610,0.7150706649,
1609,19.25205803,1609,0.7155228257,
1608,19.23052216,1608,0.7160089016,
1607,19.21579742,1607,0.7163416147,
1606,19.19869995,1606,0.7167282104,
1605,19.18969917,1605,0.7169318199,
1604,19.16579056,1604,0.7174732685,
1603,19.15301323,1603,0.7177628875,
1602,19.13609505,1602,0.7181466818,
1601,19.11019897,1601,0.7187348008,
1600,19.08999252,1600,0.7191942334,
1599,19.08488655,1599,0.7193104029,
1598,19.06929398,1598,0.7196653485,
1597,19.05122948,1597,0.7200769782,
1596,19.0310173,1596,0.7205379605,
1595,19.02025795,1595,0.7207835913,
1594,18.99416542,1594,0.7213797569,
1593,18.97817039,1593,0.7217456698,
1592,18.96520615,1592,0.7220424414,
1591,18.95500374,1591,0.7222760916,
1590,18.93774223,1590,0.7226718068,
1589,18.92008781,1589,0.72307688,
1588,18.90327835,1588,0.7234628797,
1587,18.89321136,1587,0.7236942053,
1586,18.86506271,1586,0.7243417501,
1585,18.85232735,1585,0.724635005,
1584,18.82955933,1584,0.7251598835,
1583,18.8248806,1583,0.7252677679,
1582,18.79903412,1582,0.72586447,
1581,18.78561592,1581,0.726174593,
1580,18.76994324,1580,0.7265370488,
1579,18.75608063,1579,0.7268579006,
1578,18.73500252,1578,0.7273462415,
1577,18.71829796,1577,0.7277336717,
1576,18.70087433,1576,0.7281380892,
1575,18.69119263,1575,0.7283629775,
1574,18.67502975,1574,0.7287387252,
1573,18.66114235,1573,0.7290617824,
1572,18.63459969,1572,0.7296799421,
1571,18.61892509,1571,0.7300453782,
1570,18.61191559,1570,0.7302089334,
1569,18.57844543,1569,0.7309905887,
1568,18.57037926,1568,0.7311792374,
1567,18.55800819,1567,0.7314686775,
1566,18.53283119,1566,0.7320582271,
1565,18.52367973,1565,0.7322727442,
1564,18.50390244,1564,0.7327366471,
1563,18.48885345,1563,0.7330899835,
1562,18.47033882,1562,0.7335250974,
1561,18.45441818,1561,0.733899653,
1560,18.43437195,1560,0.7343716621,
1559,18.42585564,1559,0.734572351,
1558,18.40102768,1558,0.735157907,
1557,18.38755989,1557,0.7354758978,
1556,18.3771019,1556,0.735722959,
1555,18.35540009,1555,0.736236155,
1554,18.3428154,1554,0.7365339994,
1553,18.32322693,1553,0.7369980812,
1552,18.30002594,1552,0.7375482917,
1551,18.28815842,1551,0.7378300428,
1550,18.27822495,1550,0.738065958,
1549,18.26015854,1549,0.7384954691,
1548,18.23033333,1548,0.7392053604,
1547,18.22389984,1547,0.7393586636,
1546,18.21286011,1546,0.7396218181,
1545,18.19090652,1545,0.7401456237,
1544,18.17724609,1544,0.7404718995,
1543,18.15851212,1543,0.7409197688,
1542,18.13437271,1542,0.741497457,
1541,18.11782074,1541,0.7418940067,
1540,18.10281563,1540,0.74225384,
1539,18.08441734,1539,0.7426954508,
1538,18.0719738,1538,0.7429944277,
1537,18.05689621,1537,0.7433568835,
1536,18.03516579,1536,0.7438798547,
1535,18.02902031,1535,0.744027853,
1534,18.00255775,1534,0.7446658015,
1533,17.98557854,1533,0.7450755835,
1532,17.97047806,1532,0.7454403639,
1531,17.96116829,1531,0.745665431,
1530,17.93978119,1530,0.7461828589,
1529,17.91311836,1529,0.7468287945,
1528,17.9084034,1528,0.7469431162,
1527,17.8927021,1527,0.7473240495,
1526,17.86446762,1526,0.7480099201,
1525,17.8537693,1525,0.7482700944,
1524,17.84613991,1524,0.7484557033,
1523,17.8187561,1523,0.7491226196,
1522,17.80704689,1522,0.7494080663,
1521,17.78752518,1521,0.7498844862,
1520,17.77096748,1520,0.7502889633,
1519,17.74682999,1519,0.7508792281,
1518,17.7352314,1518,0.751163125,
1517,17.72371483,1517,0.7514452338,
1516,17.70340729,1516,0.7519431114,
1515,17.6842289,1515,0.7524138689,
1514,17.66625977,1514,0.7528554201,
1513,17.65119171,1513,0.7532259822,
1512,17.63684464,1512,0.7535791397,
1511,17.62221718,1511,0.7539394498,
1510,17.60085678,1510,0.754466176,
1509,17.58603287,1509,0.7548320889,
1508,17.57320976,1508,0.7551489472,
1507,17.5546093,1507,0.7556088567,
1506,17.53279877,1506,0.7561487556,
1505,17.51386452,1505,0.7566180229,
1504,17.50846863,1504,0.7567518353,
1503,17.48891258,1503,0.757237196,
1502,17.47050667,1502,0.7576944828,
1501,17.44831085,1501,0.7582466006,
1500,17.4406662,1500,0.7584369183,
1499,17.42583275,1499,0.7588064671,
1498,17.40366745,1498,0.7593591809,
1497,17.3790741,1497,0.7599733472,
1496,17.37044144,1496,0.760189116,
1495,17.35454559,1495,0.7605867386,
1494,17.33629036,1494,0.761043787,
1493,17.31243324,1493,0.7616419196,
1492,17.29620171,1492,0.7620492578,
1491,17.28906822,1491,0.7622284293,
1490,17.27408409,1490,0.7626049519,
1489,17.250597,1489,0.7631958723,
1488,17.23227882,1488,0.7636572719,
1487,17.21691895,1487,0.7640445828,
1486,17.20988464,1486,0.7642220259,
1485,17.19165802,1485,0.7646822333,
1484,17.16971397,1484,0.7652369142,
1483,17.15063667,1483,0.7657197714,
1482,17.13854599,1482,0.7660260201,
1481,17.11958694,1481,0.7665067315,
1480,17.10183716,1480,0.7669572234,
1479,17.08765411,1479,0.7673175335,
1478,17.07763672,1478,0.7675722241,
1477,17.05244827,1477,0.7682132721,
1476,17.03638268,1476,0.7686226368,
1475,17.01737404,1475,0.769107461,
1474,16.99897003,1474,0.769577384,
1473,16.98673439,1473,0.7698901296,
1472,16.97496605,1472,0.7701910734,
1471,16.95538521,1471,0.7706923485,
1470,16.93650818,1470,0.7711761594,
1469,16.91644478,1469,0.7716909051,
1468,16.91191483,1468,0.7718071938,
1467,16.87959671,1467,0.7726379037,
1466,16.85394859,1466,0.7732983232,
1465,16.84828758,1465,0.7734442353,
1464,16.84177017,1464,0.7736122608,
1463,16.81210899,1463,0.7743778229,
1462,16.79267693,1462,0.7748800516,
1461,16.78962135,1461,0.7749590874,
1460,16.76493073,1460,0.775598228,
1459,16.75437355,1459,0.7758718133,
1458,16.72999191,1458,0.7765042782,
1457,16.71768188,1457,0.7768239379,
1456,16.70619583,1456,0.777122438,
1455,16.68119049,1455,0.777772963,
1454,16.66952133,1454,0.7780768871,
1453,16.64863777,1453,0.7786212564,
1452,16.63998032,1452,0.778847158,
1451,16.62107086,1451,0.7793409824,
1450,16.60574913,1450,0.7797415257,
1449,16.58649635,1449,0.7802453637,
1448,16.57050323,1448,0.7806643248,
1447,16.55673981,1447,0.7810251713,
1446,16.53684235,1446,0.7815474272,
1445,16.51804352,1445,0.7820414305,
1444,16.4989872,1444,0.7825427055,
1443,16.48522568,1443,0.7829051018,
1442,16.46522903,1442,0.7834322453,
1441,16.45336151,1441,0.7837453485,
1440,16.43322182,1440,0.7842773199,
1439,16.41415787,1439,0.7847813964,
1438,16.40143585,1438,0.7851181626,
1437,16.38407516,1437,0.7855780721,
1436,16.3591671,1436,0.7862388492,
1435,16.36736488,1435,0.7860212326,
1434,16.33291054,1434,0.7869364023,
1433,16.31502533,1433,0.7874122262,
1432,16.30281067,1432,0.7877374887,
1431,16.28003502,1431,0.7883446217,
1430,16.27062225,1430,0.7885958552,
1429,16.25290108,1429,0.7890691161,
1428,16.23916245,1428,0.7894363999,
1427,16.21469498,1427,0.7900912166,
1426,16.20048523,1426,0.790471971,
1425,16.1850872,1425,0.7908849716,
1424,16.16761208,1424,0.7913541198,
1423,16.1537075,1423,0.7917277813,
1422,16.13229752,1422,0.792303741,
1421,16.12183571,1421,0.7925854921,
1420,16.10149002,1420,0.7931339145,
1419,16.08865356,1419,0.7934802771,
1418,16.07511711,1418,0.793845892,
1417,16.04955101,1417,0.794537127,
1416,16.03699875,1416,0.7948768735,
1415,16.0183239,1415,0.7953829169,
1414,16.0122757,1414,0.7955469489,
1413,15.99213028,1413,0.7960937023,
1412,15.97454071,1412,0.7965716124,
1411,15.95312691,1411,0.7971541882,
1410,15.93587971,1410,0.7976239324,
1409,15.92609882,1409,0.7978906035,
1408,15.90806198,1408,0.7983826995,
1407,15.89017963,1407,0.7988712192,
1406,15.87701607,1406,0.799231112,
1405,15.84090328,1405,0.8002200723,
1404,15.84186554,1404,0.8001936674,
1403,15.82146263,1403,0.800753355,
1402,15.80990696,1402,0.8010706902,
1401,15.78903008,1401,0.8016445637,
1400,15.77028465,1400,0.8021604419,
1399,15.75589466,1399,0.802556932,
1398,15.73416996,1398,0.8031561375,
1397,15.72378731,1397,0.8034428358,
1396,15.70439816,1396,0.8039786816,
1395,15.68601322,1395,0.8044874072,
1394,15.6663208,1394,0.8050329685,
1393,15.63421917,1393,0.8059238195,
1392,15.63819218,1392,0.8058134317,
1391,15.59693813,1391,0.8069606423,
1390,15.57150459,1390,0.8076694012,
1389,15.57418823,1389,0.8075945973,
1388,15.53719807,1388,0.8086273074,
1387,15.5050621,1387,0.8095265031,
1386,15.49761772,1386,0.8097350597,
1385,15.48403931,1385,0.8101157546,
1384,15.45585442,1384,0.8109070063,
1383,15.44943047,1383,0.8110875487,
1382,15.42701912,1382,0.8117179871,
1381,15.42659664,1381,0.8117298484,
1380,15.40461731,1380,0.812349081,
1379,15.39082336,1379,0.8127381206,
1378,15.36812592,1378,0.8133790493,
1377,15.36608601,1377,0.8134367466,
1376,15.35297298,1376,0.8138074875,
1375,15.34459591,1375,0.8140445352,
1374,15.32758808,1374,0.8145262003,
1373,15.30144215,1373,0.8152676225,
1372,15.29478455,1372,0.8154566288,
1371,15.28922653,1371,0.8156145215,
1370,15.26605225,1370,0.816273272,
1369,15.24311447,1369,0.8169263005,
1368,15.23726463,1368,0.8170930147,
1367,15.21833229,1367,0.8176329136,
1366,15.20132542,1366,0.8181185126,
1365,15.18787193,1365,0.8185030818,
1364,15.16719055,1364,0.8190948963,
1363,15.15730286,1363,0.819378078,
1362,15.12870312,1362,0.8201982975,
1361,15.10323715,1361,0.8209299445,
1360,15.09155083,1360,0.8212661147,
1359,15.06244564,1359,0.8221045136,
1358,15.05095768,1358,0.8224358559,
1357,15.02478695,1357,0.8231916428,
1356,15.01037502,1356,0.823608458,
1355,14.99032974,1355,0.8241888285,
1354,14.97732544,1354,0.8245657086,
1353,14.95619678,1353,0.825178802,
1352,14.94090748,1352,0.8256230354,
1351,14.92425156,1351,0.8261074424,
1350,14.91310787,1350,0.8264318705,
1349,14.89689827,1349,0.8269041777,
1348,14.88642693,1348,0.8272095323,
1347,14.86838341,1347,0.8277362585,
1346,14.85394955,1346,0.828158021,
1345,14.84087753,1345,0.8285404444,
1344,14.82101345,1344,0.8291220665,
1343,14.80899429,1343,0.8294744492,
1342,14.79744053,1342,0.8298134208,
1341,14.78305435,1341,0.8302358389,
1340,14.76519966,1340,0.8307606578,
1339,14.74334335,1339,0.8314040303,
1338,14.73474312,1338,0.8316574097,
1337,14.71704388,1337,0.8321794271,
1336,14.70037651,1336,0.8326715231,
1335,14.68736362,1335,0.8330561519,
1334,14.66445446,1334,0.8337340951,
1333,14.64832687,1333,0.8342119455,
1332,14.63222313,1332,0.8346896768,
1331,14.61139202,1331,0.8353084326,
1330,14.60473061,1330,0.8355064392,
1329,14.59008408,1329,0.8359422088,
1328,14.57254314,1328,0.8364646435,
1327,14.55519962,1327,0.836981833,
1326,14.5384922,1326,0.8374806046,
1325,14.5204258,1325,0.8380206227,
1324,14.50806999,1324,0.8383903503,
1323,14.49087715,1323,0.8389053345,
1322,14.46442413,1322,0.8396988511,
1321,14.4566555,1321,0.8399322033,
1320,14.4383688,1320,0.8404818773,
1319,14.42002106,1319,0.8410341144,
1318,14.40266991,1318,0.8415570259,
1317,14.38498974,1317,0.8420904279,
1316,14.36906338,1316,0.8425715566,
1315,14.35471153,1315,0.843005538,
1314,14.34309483,1314,0.8433571458,
1313,14.31175804,1313,0.8443070054,
1312,14.29588223,1312,0.8447890282,
1311,14.28792477,1311,0.8450308442,
1310,14.26819229,1310,0.845631063,
1309,14.25089073,1309,0.846157968,
1308,14.22962093,1308,0.8468066454,
1307,14.21528721,1307,0.8472443223,
1306,14.20579529,1306,0.8475344181,
1305,14.17470455,1305,0.8484860063,
1304,14.16926193,1304,0.8486527801,
1303,14.15766335,1303,0.849008441,
1302,14.13356209,1302,0.849748373,
1301,14.11583138,1301,0.8502935171,
1300,14.09577179,1300,0.8509111404,
1299,14.08262253,1299,0.851316452,
1298,14.07338333,1298,0.8516014814,
1297,14.04604721,1297,0.8524458408,
1296,14.03887749,1296,0.8526676297,
1295,14.0199585,1295,0.8532532454,
1294,14.00602436,1294,0.8536851406,
1293,13.98755646,1293,0.8542581797,
1292,13.9699192,1292,0.8548061252,
1291,13.95867062,1291,0.8551559448,
1290,13.94109249,1290,0.8557031751,
1289,13.92627621,1289,0.8561649919,
1288,13.91153526,1288,0.8566249609,
1287,13.88594627,1287,0.8574244976,
1286,13.87508965,1286,0.8577641845,
1285,13.85720539,1285,0.8583243489,
1284,13.838871,1284,0.8588993549,
1283,13.82536697,1283,0.8593233228,
1282,13.80471992,1282,0.8599723577,
1281,13.79014969,1281,0.8604310155,
1280,13.77649498,1280,0.8608613014,
1279,13.75579071,1279,0.8615144491,
1278,13.74663734,1278,0.8618035316,
1277,13.71971321,1277,0.8626549244,
1276,13.71343327,1276,0.8628538251,
1275,13.68783283,1275,0.8636653423,
1274,13.67274094,1274,0.8641444445,
1273,13.66004181,1273,0.8645479679,
1272,13.64233303,1272,0.865111351,
1271,13.61739635,1271,0.8659059405,
1270,13.61185265,1270,0.8660827279,
1269,13.59140682,1269,0.8667355776,
1268,13.57821274,1268,0.8671573997,
1267,13.56998348,1267,0.8674206734,
1266,13.54420376,1266,0.8682465553,
1265,13.53014755,1265,0.8686974645,
1264,13.50765705,1264,0.869419992,
1263,13.49947453,1263,0.8696831465,
1262,13.48018456,1262,0.8703041673,
1261,13.46535397,1261,0.8707822561,
1260,13.44264412,1260,0.871515274,
1259,13.42904854,1259,0.8719547391,
1258,13.41120148,1258,0.8725323081,
1257,13.41034889,1257,0.8725599051,
1256,13.38370419,1256,0.873423636,
1255,13.36511803,1255,0.8740271926,
1254,13.34800434,1254,0.8745836616,
1253,13.33223915,1253,0.8750969172,
1252,13.31407547,1252,0.8756889701,
1251,13.29979324,1251,0.876155138,
1250,13.27722645,1250,0.8768926263,
1249,13.26933956,1249,0.8771507144,
1248,13.2543087,1248,0.8776429296,
1247,13.23405075,1247,0.8783072233,
1246,13.21984482,1246,0.8787736297,
1245,13.19900608,1245,0.8794587851,
1244,13.18723965,1244,0.879846096,
1243,13.16829205,1243,0.8804705739,
1242,13.14782906,1242,0.8811459541,
1241,13.13266468,1241,0.8816471696,
1240,13.12190437,1240,0.8820031285,
1239,13.10793591,1239,0.8824656606,
1238,13.09662437,1238,0.8828406334,
1237,13.06519318,1237,0.8838841319,
1236,13.05834961,1236,0.8841117024,
1235,13.04115772,1235,0.8846838474,
1234,13.02860355,1234,0.8851020932,
1233,13.00754833,1233,0.885804534,
1232,12.98762131,1232,0.8864703774,
1231,12.97648525,1231,0.8868429065,
1230,12.96111679,1230,0.8873575926,
1229,12.94722557,1229,0.8878232837,
1228,12.92451477,1228,0.8885857463,
1227,12.90851116,1227,0.889123857,
1226,12.897892,1226,0.8894812465,
1225,12.88230419,1225,0.890006423,
1224,12.86664772,1224,0.8905345798,
1223,12.84396648,1223,0.8913008571,
1222,12.82756138,1222,0.8918558955,
1221,12.81266975,1221,0.8923603892,
1220,12.79477024,1220,0.8929675221,
1219,12.77977848,1219,0.893476665,
1218,12.7580328,1218,0.8942162991,
1217,12.74104309,1217,0.8947950006,
1216,12.73162651,1216,0.8951160908,
1215,12.72028065,1215,0.8955032825,
1214,12.69662571,1214,0.8963117003,
1213,12.68034458,1213,0.8968689442,
1212,12.66326427,1212,0.8974543214,
1211,12.65109921,1211,0.8978717327,
1210,12.62961578,1210,0.898609817,
1209,12.61650276,1209,0.8990610242,
1208,12.5940609,1208,0.8998342156,
1207,12.57992554,1207,0.9003219604,
1206,12.56709099,1206,0.9007652402,
1205,12.54992199,1205,0.9013589621,
1204,12.53652763,1204,0.9018227458,
1203,12.51634407,1203,0.9025225043,
1202,12.49882698,1202,0.9031307101,
1201,12.47951889,1201,0.9038021564,
1200,12.47667122,1200,0.903901279,
1199,12.45453739,1199,0.9046723843,
1198,12.42930984,1198,0.9055529833,
1197,12.413764,1197,0.906096518,
1196,12.40238094,1196,0.9064949155,
1195,12.38254356,1195,0.9071901441,
1194,12.37555695,1194,0.9074352384,
1193,12.3445015,1193,0.9085264802,
1192,12.34236145,1192,0.9086017609,
1191,12.32702732,1191,0.9091416597,
1190,12.30399609,1190,0.9099538326,
1189,12.28793716,1189,0.9105210304,
1188,12.26723003,1188,0.9112535119,
1187,12.25288963,1187,0.9117614627,
1186,12.23404694,1186,0.9124298692,
1185,12.22493362,1185,0.9127535224,
1184,12.2037096,1184,0.9135081172,
1183,12.20772171,1183,0.9133653641,
1182,12.1753912,1182,0.9145171046,
1181,12.15193367,1181,0.9153546095,
1180,12.13754749,1180,0.9158690572,
1179,12.12879562,1179,0.9161823392,
1178,12.10087585,1178,0.9171831608,
1177,12.08740616,1177,0.9176669121,
1176,12.08206081,1176,0.9178589582,
1175,12.05775833,1175,0.918733418,
1174,12.03295326,1174,0.9196277857,
1173,12.02712345,1173,0.9198382497,
1172,12.00268078,1172,0.9207217693,
1171,11.99434376,1171,0.921023488,
1170,11.98214436,1170,0.9214654565,
1169,11.96206665,1169,0.9221937656,
1168,11.93832207,1168,0.9230567217,
1167,11.92889023,1167,0.9233999848,
1166,11.91166973,1166,0.9240273833,
1165,11.89672852,1165,0.9245724678,
1164,11.87875366,1164,0.9252291322,
1163,11.85862541,1163,0.9259656668,
1162,11.84828758,1162,0.9263443947,
1161,11.83386612,1161,0.9268733263,
1160,11.81022549,1160,0.9277418256,
1159,11.79521561,1159,0.9282941222,
1158,11.7821455,1158,0.9287756085,
1157,11.76532745,1157,0.9293959737,
1156,11.74647427,1156,0.930092454,
1155,11.734869,1155,0.9305217266,
1154,11.72299099,1154,0.9309615493,
1153,11.70548344,1153,0.9316106439,
1152,11.68147087,1152,0.9325024486,
1151,11.67226505,1151,0.9328448772,
1150,11.65256882,1150,0.9335783124,
1149,11.6337738,1149,0.9342793822,
1148,11.61870766,1148,0.9348421693,
1147,11.59846115,1147,0.9355996251,
1146,11.59025478,1146,0.9359070063,
1145,11.57517624,1145,0.9364723563,
1144,11.55775261,1144,0.9371265769,
1143,11.54353142,1143,0.9376612902,
1142,11.53085613,1142,0.9381384254,
1141,11.50423622,1141,0.9391422272,
1140,11.4834671,1140,0.9399269819,
1139,11.47653866,1139,0.9401890635,
1138,11.45651531,1138,0.940947473,
1137,11.43493462,1137,0.9417663217,
1136,11.4257946,1136,0.9421135783,
1135,11.41127586,1135,0.9426658154,
1134,11.38855362,1134,0.9435314536,
1133,11.37850666,1133,0.9439147115,
1132,11.35525513,1132,0.9448031187,
1131,11.33877373,1131,0.9454339147,
1130,11.32714748,1130,0.9458794594,
1129,11.31644058,1129,0.9462901354,
1128,11.29561329,1128,0.9470901489,
1127,11.28125858,1127,0.9476424456,
1126,11.25744629,1126,0.9485601187,
1125,11.25042915,1125,0.9488309026,
1124,11.23009586,1124,0.9496165514,
1123,11.21042061,1123,0.9503780603,
1122,11.19769859,1122,0.9508712292,
1121,11.18345642,1121,0.951423943,
1120,11.16914463,1120,0.951980114,
1119,11.14445877,1119,0.9529410005,
1118,11.13139248,1118,0.953450501,
1117,11.11708832,1117,0.9540089369,
1116,11.09962559,1116,0.9546917081,
1115,11.08227921,1115,0.955370903,
1114,11.07065105,1114,0.9558268189,
1113,11.05449963,1113,0.9564608932,
1112,11.02579403,1112,0.9575901031,
1111,11.01796818,1111,0.9578984976,
1110,11.00458336,1110,0.9584264159,
1109,10.98321056,1109,0.9592706561,
1108,10.97264862,1108,0.9596885443,
1107,10.95774174,1107,0.9602789283,
1106,10.94050407,1106,0.9609626532,
1105,10.92515755,1105,0.9615722895,
1104,10.91808796,1104,0.961853385,
1103,10.88227367,1103,0.9632803798,
1102,10.87339115,1102,0.9636349678,
1101,10.86201859,1101,0.9640894532,
1100,10.84223938,1100,0.9648810029,
1099,10.83026409,1099,0.9653609395,
1098,10.81721592,1098,0.9658845067,
1097,10.79444695,1097,0.9667996168,
1096,10.78745461,1096,0.9670810103,
1095,10.76118374,1095,0.9681399465,
1094,10.74777317,1094,0.9686815143,
1093,10.73851299,1093,0.9690558314,
1092,10.71961403,1092,0.969820857,
1091,10.69861317,1091,0.9706724882,
1090,10.6750288,1090,0.9716309309,
1089,10.67154217,1089,0.9717728496,
1088,10.64621258,1088,0.9728048444,
1087,10.63673592,1087,0.9731916189,
1086,10.61981297,1086,0.9738830924,
1085,10.59935093,1085,0.9747207165,
1084,10.59122562,1084,0.9750537872,
1083,10.57007885,1083,0.9759217501,
1082,10.5467701,1082,0.9768805504,
1081,10.54058266,1081,0.9771353602,
1080,10.53895187,1080,0.9772025943,
1079,10.50354576,1079,0.9786641002,
1078,10.47999573,1078,0.9796388745,
1077,10.47202301,1077,0.9799694419,
1076,10.45703506,1076,0.9805914164,
1075,10.44305611,1075,0.9811723828,
1074,10.42404842,1074,0.9819635749,
1073,10.4043417,1073,0.9827854037,
1072,10.38663197,1072,0.9835252762,
1071,10.3836174,1071,0.98365134,
1070,10.36065578,1070,0.9846127629,
1069,10.35445595,1069,0.9848726988,
1068,10.33771896,1068,0.9855752587,
1067,10.31612778,1067,0.9864832759,
1066,10.29137993,1066,0.9875264168,
1065,10.28790569,1065,0.9876730442,
1064,10.27476311,1064,0.9882281423,
1063,10.25832939,1063,0.9889233708,
1062,10.2466135,1062,0.9894196391,
1061,10.20991707,1061,0.9909777641,
1060,10.20401478,1060,0.9912289381,
1059,10.194067,1059,0.9916525483,
1058,10.17064571,1058,0.9926514626,
1057,10.15117455,1057,0.9934837222,
1056,10.13784313,1056,0.9940544367,
1055,10.12929726,1055,0.9944206476,
1054,10.10852051,1054,0.9953123927,
1053,10.08601952,1053,0.9962801933,
1052,10.08440208,1052,0.9963498712,
1051,10.05003071,1051,0.9978325963,
1050,10.05050182,1050,0.9978122711,
1049,10.03713512,1049,0.9983901978,
1048,10.01274109,1048,0.9994469881,
1047,9.999459267,1047,1.000023484,
1046,9.990861893,1046,1.000397086,
1045,9.969861031,1045,1.001310945,
1044,9.950192451,1044,1.002168536,
1043,9.945140839,1043,1.002389073,
1042,9.919366837,1042,1.003516078,
1041,9.911610603,1041,1.003855705,
1040,9.882593155,1040,1.005129099,
1039,9.883323669,1039,1.005097032,
1038,9.86438942,1038,1.005929828,
1037,9.841964722,1037,1.006918192,
1036,9.817428589,1036,1.008002281,
1035,9.807192802,1035,1.008455276,
1034,9.803607941,1034,1.008614063,
1033,9.773145676,1033,1.009965658,
1032,9.759979248,1032,1.010551095,
1031,9.741856575,1031,1.011358261,
1030,9.720742226,1030,1.012300611,
1029,9.714455605,1029,1.012581468,
1028,9.709127426,1028,1.012819767,
1027,9.684751511,1027,1.013911486,
1026,9.669033051,1026,1.014616966,
1025,9.658236504,1025,1.015102148,
1024,9.635987282,1024,1.016103745,
1023,9.630114555,1023,1.016368508,
1022,9.613377571,1022,1.017124057,
1021,9.597938538,1021,1.017822027,
1020,9.576888084,1020,1.018775582,
1019,9.569523811,1019,1.019109726,
1018,9.552079201,1018,1.01990211,
1017,9.531758308,1017,1.020826936,
1016,9.516951561,1016,1.021502137,
1015,9.504384995,1015,1.022076011,
1014,9.474931717,1014,1.02342391,
1013,9.468686104,1013,1.023710251,
1012,9.449372292,1012,1.024597049,
1011,9.435956001,1011,1.025214076,
1010,9.430125237,1010,1.025482535,
1009,9.408823013,1009,1.026464701,
1008,9.392951965,1008,1.027197838,
1007,9.381930351,1007,1.027707815,
1006,9.364146233,1006,1.02853179,
1005,9.346401215,1005,1.029355645,
1004,9.333714485,1004,1.029945493,
1003,9.321100235,1003,1.030532837,
1002,9.304166794,1002,1.031322479,
1001,9.289746284,1001,1.031996131,
1000,9.27636528,1000,1.032622099,
999,9.256937027,999,1.033532619,
998,9.234246254,998,1.034598589,
997,9.234110832,997,1.034604907,
996,9.208520889,996,1.035810113,
995,9.194645882,995,1.03646493,
994,9.183124542,994,1.037009478,
993,9.165949821,993,1.037822485,
992,9.151250839,992,1.038519502,
991,9.139687538,991,1.039068699,
990,9.127762794,990,1.039635658,
989,9.112164497,989,1.040378451,
988,9.096177101,988,1.041141152,
987,9.076077461,987,1.04210186,
986,9.060698509,986,1.042838335,
985,9.041639328,985,1.043752789,
984,9.030092239,984,1.044307828,
983,9.015141487,983,1.045027494,
982,8.999775887,982,1.045768261,
981,8.986797333,981,1.046395063,
980,8.973071098,980,1.04705894,
979,8.960646629,979,1.047660708,
978,8.940558434,978,1.048635364,
977,8.928808212,977,1.049206495,
976,8.915081978,976,1.049874663,
975,8.893498421,975,1.050927401,
974,8.880654335,974,1.051555037,
973,8.862469673,973,1.052445292,
972,8.855412483,972,1.052791238,
971,8.834247589,971,1.053830504,
970,8.828903198,970,1.054093242,
969,8.811408043,969,1.054954648,
968,8.800694466,968,1.055483103,
967,8.78574276,967,1.056221485,
966,8.771584511,966,1.056921959,
965,8.759397507,965,1.057525754,
964,8.746626854,964,1.058159351,
963,8.729534149,963,1.059008956,
962,8.709752083,962,1.059994221,
961,8.698724747,961,1.060544372,
960,8.682961464,960,1.061332107,
959,8.670938492,959,1.061933875,
958,8.660675049,958,1.062448263,
957,8.641133308,957,1.063429236,
956,8.625015259,956,1.064240098,
955,8.606971741,955,1.065149665,
954,8.599509239,954,1.065526366,
953,8.584741592,953,1.066272736,
952,8.573443413,952,1.066844702,
951,8.551568985,951,1.067954183,
950,8.54486084,950,1.068295002,
949,8.537278175,949,1.068680525,
948,8.51671505,948,1.069727898,
947,8.499430656,947,1.070610166,
946,8.48982811,946,1.071101069,
945,8.481765747,945,1.071513772,
944,8.4572258,944,1.072772145,
943,8.440202713,943,1.073647141,
942,8.437643051,942,1.073778868,
941,8.424978256,941,1.074431181,
940,8.41152668,940,1.075125217,
939,8.404319763,939,1.075497389,
938,8.385946274,938,1.076447964,
937,8.376412392,937,1.076941967,
936,8.364991188,936,1.077534556,
935,8.350363731,935,1.078294635,
934,8.331277847,934,1.079288363,
933,8.336236,933,1.079030037,
932,8.318873405,932,1.079935431,
931,8.304224968,931,1.080700874,
930,8.303761482,930,1.080725193,
929,8.286444664,929,1.08163178,
928,8.269604683,928,1.08251524,
927,8.252077103,927,1.083436728,
926,8.244196892,926,1.083851576,
925,8.227107048,925,1.084752917,
924,8.215031624,924,1.085390806,
923,8.220006943,923,1.085127831,
922,8.208426476,922,1.085740089,
921,8.194801331,921,1.086461544,
920,8.184400558,920,1.087013125,
919,8.173390388,919,1.087597728,
918,8.158526421,918,1.088388324,
917,8.145100594,917,1.08910358,
916,8.142227173,916,1.089256763,
915,8.119510651,915,1.090470076,
914,8.118906021,914,1.090502501,
913,8.098300934,913,1.091606021,
912,8.084611893,912,1.092340827,
911,8.072407722,911,1.092996955,
910,8.074602127,910,1.092878819,
909,8.038599968,909,1.094819546,
908,8.037153244,908,1.094897747,
907,8.038036346,907,1.094850063,
906,8.005940437,906,1.096587658,
905,8.018610954,905,1.095900893,
904,7.98623991,904,1.097657681,
903,7.970897198,903,1.098492742,
902,7.956044197,902,1.099302769,
901,7.940348148,901,1.10016048,
900,7.938483238,900,1.100262403,
899,7.916805267,899,1.101450086,
898,7.918941975,898,1.101332784,
897,7.901059151,897,1.102314711,
896,7.901705265,896,1.102279186,
895,7.880534172,895,1.103444338,
894,7.883605957,894,1.103275061,
893,7.863684654,893,1.104373932,
892,7.835021496,892,1.105959773,
891,7.821007252,891,1.106737375,
890,7.83231163,890,1.106109977,
889,7.81690836,889,1.106964946,
888,7.798304558,888,1.107999802,
887,7.780100346,887,1.10901475,
886,7.785311222,886,1.108723998,
885,7.791475773,885,1.108380318,
884,7.780930996,884,1.108968377,
883,7.765571117,883,1.109826565,
882,7.749589443,882,1.11072135,
881,7.734497547,881,1.111567855,
880,7.722503662,880,1.112241864,
879,7.738659382,879,1.111334205,
878,7.717613697,878,1.112516999,
877,7.714763165,877,1.112677336,
876,7.694039345,876,1.113845587,
875,7.721874237,875,1.112277269,
874,7.660290718,874,1.115754724,
873,7.650666714,873,1.116300702,
872,7.620199203,872,1.118033648,
871,7.668898106,871,1.115267038,
870,7.636566639,870,1.117101908,
869,7.62912178,869,1.117525458,
868,7.618798256,868,1.118113518,
867,7.618093491,867,1.118153691,
866,7.591435432,866,1.119676113,
865,7.549749374,865,1.122067451,
864,7.576876163,864,1.120509863,
863,7.560275555,863,1.121462345,
862,7.578767776,862,1.120401382,
861,7.559854507,861,1.121486545,
860,7.513422012,860,1.124162197,
859,7.533298492,859,1.123014808,
858,7.531135559,858,1.123139501,
857,7.502233028,857,1.124809384,
856,7.512580395,856,1.124210835,
855,7.519947529,855,1.123785138,
854,7.50439024,854,1.124684572,
853,7.456376553,853,1.127472162,
852,7.465460777,852,1.12694335,
851,7.449726582,851,1.127859712,
850,7.478496552,850,1.126185656,
849,7.444682121,849,1.128153801,
848,7.426038265,848,1.129242778,
847,7.45614481,847,1.127485633,
846,7.39953661,846,1.130795479,
845,7.456055164,845,1.127490878,
844,7.438204288,844,1.128531933,
843,7.376496315,843,1.132149816,
842,7.404035568,842,1.130531549,
841,7.355497837,841,1.133387923,
840,7.337539673,840,1.134449482,
839,7.371232033,839,1.132459879,
838,7.386065483,838,1.131586909,
837,7.318786621,837,1.13556087,
836,7.329181671,836,1.134944558,
835,7.330949783,835,1.134839773,
834,7.339848042,834,1.134312987,
833,7.394917965,833,1.13106668,
832,7.302770138,832,1.136512399,
831,7.290154457,831,1.137263298,
830,7.304109573,830,1.136432767,
829,7.374724865,829,1.132254243,
828,7.290730476,828,1.137228966,
827,7.228550434,827,1.140948772,
826,7.314188957,826,1.135833859,
825,7.308840752,825,1.136151552,
824,7.286576748,824,1.137476444,
823,7.281633377,823,1.13777113,
822,7.244238853,822,1.140007257,
821,7.303082943,821,1.136493802,
820,7.190878868,820,1.14321804,
819,7.262358189,819,1.138922334,
818,7.277863503,818,1.137996078,
817,7.269152164,817,1.138516188,
816,7.183198452,816,1.143682122,
815,7.285339355,815,1.137550235,
814,7.199026585,814,1.142726183,
813,7.284669399,813,1.13759017,
812,7.153028488,812,1.145510077,
811,7.175199032,811,1.144166112,
810,7.208064079,810,1.142181396,
809,7.198374748,809,1.142765522,
808,7.184506416,808,1.143603086,
807,7.180802345,807,1.143826962,
806,7.128379345,806,1.147009134,
805,7.272647381,805,1.138307452,
804,7.182513714,804,1.143723488,
803,7.14596796,803,1.145938873,
802,7.221935749,802,1.141346335,
801,7.171790123,801,1.144372463,
800,7.169435978,800,1.144515038,
799,7.308737278,799,1.136157632,
798,7.169393539,798,1.144517541,
797,7.22873354,797,1.140937805,
796,7.182992458,796,1.143694639,
795,7.193987846,795,1.143030286,
794,7.168522358,794,1.144570351,
793,7.198952198,793,1.142730713,
792,7.230858326,792,1.140810132,
791,7.065793991,791,1.15083909,
790,7.0871315,790,1.149529457,
789,7.084552765,789,1.149687529,
788,7.171454906,788,1.144392729,
787,7.182249546,787,1.143739462,
786,7.241454601,786,1.14017415,
785,7.151770592,785,1.145586371,
784,7.156976223,784,1.145270467,
783,7.127087593,783,1.147087932,
782,7.182509422,782,1.143723845,
781,7.047873497,781,1.151941895,
780,7.082930088,780,1.149787068,
779,7.114449024,779,1.147858739,
778,7.150970459,778,1.145635009,
777,7.161169529,777,1.145016074,
776,7.09087944,776,1.14929986,
775,7.113929749,775,1.147890449,
774,7.064191818,774,1.150937557,
773,7.108314514,773,1.148233414,
772,7.235758781,772,1.140515924,
771,7.09784317,771,1.148873568,
770,7.095110416,770,1.149040818,
769,7.081607819,769,1.149868131,
768,7.071802616,768,1.150469899,
767,7.083474159,767,1.14975369,
766,7.058673859,766,1.151276827,
765,7.104623318,765,1.148458958,
764,7.019282341,764,1.153707266,
763,7.07614994,763,1.15020299,
762,7.058044434,762,1.15131557,
761,7.119504929,761,1.147550225,
760,7.024043083,760,1.153412819,
759,7.028119087,759,1.15316093,
758,6.993219376,758,1.155322909,
757,6.987782478,757,1.155660629,
756,7.038545609,756,1.15251708,
755,7.01987505,755,1.153670549,
754,6.975749969,754,1.156409144,
753,7.067520142,753,1.150732994,
752,6.980959892,752,1.156084895,
751,6.984373093,751,1.155872583,
750,7.006006718,750,1.154529452,
749,7.026452541,749,1.153263927,
748,7.020436764,748,1.153635859,
747,6.976850986,747,1.156340599,
746,6.989868164,746,1.155531049,
745,6.994068623,745,1.1552701,
744,6.999137878,744,1.154955387,
743,6.973063946,743,1.156576395,
742,6.929656029,742,1.159288287,
741,6.948900223,741,1.158083916,
740,7.001879692,740,1.154785395,
739,6.932372093,739,1.159118176,
738,6.980914116,738,1.156087756,
737,6.94751215,737,1.1581707,
736,6.91775465,736,1.160034895,
735,6.904016972,735,1.160898089,
734,6.912864208,734,1.160341978,
733,6.95792532,733,1.157520294,
732,6.954735756,732,1.157719374,
731,6.942306995,731,1.158496141,
730,6.922259331,730,1.159752131,
729,6.876432896,729,1.162636757,
728,6.917863846,728,1.160027981,
727,6.90961647,727,1.160546064,
726,6.913747787,726,1.160286427,
725,6.908473492,725,1.160617948,
724,6.91369009,724,1.160290122,
723,6.859333992,723,1.163718104,
722,6.874830246,722,1.162737966,
721,6.857419014,721,1.16383934,
720,6.834411621,720,1.16529882,
719,6.869616985,719,1.16306746,
718,6.879796982,718,1.162424445,
717,6.844907761,717,1.16463244,
716,6.835939884,716,1.165201783,
715,6.842189789,715,1.164804816,
714,6.811115742,714,1.166781783,
713,6.820378304,713,1.166191578,
712,6.803046703,712,1.167296529,
711,6.813746452,711,1.166614056,
710,6.8032341,710,1.167284608,
709,6.773424149,709,1.169191718,
708,6.798678398,708,1.167575479,
707,6.802967072,707,1.167301655,
706,6.802351952,706,1.167340875,
705,6.795828819,705,1.16775763,
704,6.763289928,704,1.169842005,
703,6.792900085,703,1.167944789,
702,6.751874924,702,1.170575619,
701,6.723453999,701,1.172407627,
700,6.727707386,700,1.17213285,
699,6.752149105,699,1.170557976,
698,6.745783806,698,1.170967579,
697,6.749257565,697,1.170744061,
696,6.724629402,696,1.172331691,
695,6.758753777,695,1.170133352,
694,6.729035854,694,1.172047138,
693,6.721419811,693,1.172538996,
692,6.721279621,692,1.172548056,
691,6.700996876,691,1.17386055,
690,6.731446266,690,1.17189157,
689,6.679431915,689,1.175260425,
688,6.694666386,688,1.174271107,
687,6.731899738,687,1.171862364,
686,6.686902046,686,1.174775004,
685,6.660852432,685,1.17647016,
684,6.666527748,684,1.176100254,
683,6.659164429,683,1.17658031,
682,6.654905319,682,1.176858068,
681,6.658881187,681,1.176598787,
680,6.671332359,680,1.175787449,
679,6.644504547,679,1.177537441,
678,6.643814087,678,1.177582502,
677,6.632133007,677,1.178346753,
676,6.614974976,676,1.17947185,
675,6.617517948,675,1.179304838,
674,6.615526199,674,1.179435611,
673,6.615204334,673,1.179456711,
672,6.632501602,672,1.178322673,
671,6.618978024,671,1.179209113,
670,6.594995499,670,1.180785537,
669,6.580242634,669,1.181758046,
668,6.589039326,668,1.181177855,
667,6.574249268,667,1.182153821,
666,6.573987961,666,1.182171106,
665,6.559999466,665,1.18309617,
664,6.560990334,664,1.183030605,
663,6.562684536,663,1.182918429,
662,6.555908203,662,1.183367133,
661,6.532549858,661,1.184917212,
660,6.535592556,660,1.184715033,
659,6.532944679,659,1.184890985,
658,6.52519083,658,1.185406804,
657,6.521229267,657,1.185670495,
656,6.490047932,656,1.187752128,
655,6.523204803,655,1.185539007,
654,6.50044775,654,1.18705678,
653,6.502635956,653,1.186910629,
652,6.498426914,652,1.187191725,
651,6.478468418,651,1.188527703,
650,6.489156246,650,1.187811732,
649,6.481324196,649,1.188336253,
648,6.468799591,648,1.189176321,
647,6.479622364,647,1.188450336,
646,6.45171833,646,1.190324545,
645,6.458877087,645,1.189842939,
644,6.437143803,644,1.191306829,
643,6.438652992,643,1.191205025,
642,6.397427082,642,1.193994641,
641,6.402484417,641,1.193651438,
640,6.419475555,640,1.192500472,
639,6.405416012,639,1.193452597,
638,6.395240784,638,1.194143057,
637,6.375936985,637,1.195456028,
636,6.395314693,636,1.19413805,
635,6.379741669,635,1.195196867,
634,6.364843369,634,1.196212292,
633,6.371799946,633,1.195737839,
632,6.354584694,632,1.196912885,
631,6.341554165,631,1.197804332,
630,6.344395161,630,1.197609782,
629,6.39152956,629,1.194395185,
628,6.353641987,628,1.196977258,
627,6.315228939,627,1.199610949,
626,6.343938351,626,1.197641015,
625,6.336705208,625,1.198136449,
624,6.304784775,624,1.200329781,
623,6.309733391,623,1.199988961,
622,6.302445412,622,1.200490952,
621,6.280586243,621,1.201999784,
620,6.292895317,620,1.201149464,
619,6.277730465,619,1.202197313,
618,6.274875164,618,1.202394962,
617,6.275287151,617,1.202366352,
616,6.271595001,616,1.202622056,
615,6.248015881,615,1.204257846,
614,6.267991543,614,1.202871561,
613,6.234851837,613,1.20517385,
612,6.251438141,612,1.204020023,
611,6.247416973,611,1.204299569,
610,6.254199982,610,1.203828216,
609,6.241962433,609,1.204678893,
608,6.215055466,608,1.206555009,
607,6.213675499,607,1.206651449,
606,6.217015743,606,1.206418037,
605,6.204133987,605,1.207318783,
604,6.213363171,604,1.206673265,
603,6.207827568,603,1.207060337,
602,6.169343948,602,1.209761024,
601,6.217325211,601,1.206396461,
600,6.182228088,600,1.208855033,
599,6.166378498,599,1.209969878,
598,6.190879822,598,1.208247662,
597,6.151376247,597,1.211027741,
596,6.164910793,596,1.210073233,
595,6.163443089,595,1.210176587,
594,6.149439335,594,1.211164474,
593,6.117626667,593,1.213417053,
592,6.103885651,592,1.214393616,
591,6.112967014,591,1.213747978,
590,6.110953808,590,1.213891029,
589,6.123958111,589,1.212967753,
588,6.082695961,588,1.215903878,
587,6.091457367,587,1.215278745,
586,6.094677448,586,1.215049267,
585,6.077829361,585,1.216251493,
584,6.082261562,584,1.215934873,
583,6.087396145,583,1.215568423,
582,6.06330204,582,1.217290759,
581,6.037950516,581,1.219110489,
580,6.042081833,580,1.218813419,
579,6.068154812,579,1.216943383,
578,6.030789852,578,1.219625831,
577,6.031433582,577,1.219579458,
576,6.025739193,576,1.219989657,
575,5.975057125,575,1.223657966,
574,6.007862091,574,1.221280098,
573,6.00895834,573,1.221200824,
572,5.98712492,572,1.222781658,
571,6.004652023,571,1.221512198,
570,5.984593391,570,1.22296536,
569,6.019611835,569,1.220431566,
568,5.980576515,568,1.223256946,
567,5.95188427,567,1.225345492,
566,5.968891621,566,1.224106312,
565,5.970443249,565,1.223993421,
564,5.956116199,564,1.22503686,
563,5.946441174,563,1.225742936,
562,5.929089546,562,1.227011919,
561,5.945842743,561,1.225786567,
560,5.941534042,560,1.226101398,
559,5.938857555,559,1.22629714,
558,5.935636044,558,1.226532698,
557,5.929820538,557,1.226958394,
556,5.907156467,556,1.228621483,
555,5.900044918,555,1.229144692,
554,5.904313087,554,1.228830576,
553,5.854455948,553,1.232513428,
552,5.872002602,552,1.231213808,
551,5.871329784,551,1.231263518,
550,5.852480412,550,1.232660055,
549,5.872498989,549,1.231177092,
548,5.842988968,548,1.23336494,
547,5.861234188,547,1.232010961,
546,5.891058445,546,1.229806662,
545,5.867697239,545,1.231532335,
544,5.858543873,544,1.232210279,
543,5.850647926,543,1.232796073,
542,5.840425968,542,1.233555436,
541,5.826449871,541,1.234596014,
540,5.802309036,540,1.236399174,
539,5.830295563,539,1.234309435,
538,5.825323105,538,1.234679937,
537,5.823122978,537,1.234844089,
536,5.80673933,536,1.236067653,
535,5.81133604,535,1.235723972,
534,5.79258728,534,1.237127423,
533,5.786365986,533,1.237594128,
532,5.787282944,532,1.237525344,
531,5.766861916,531,1.239060402,
530,5.774737358,530,1.238467693,
529,5.786587715,529,1.237577438,
528,5.756330967,528,1.239854217,
527,5.78121376,527,1.237980962,
526,5.732912064,526,1.241624713,
525,5.770374775,525,1.238795996,
524,5.736978054,524,1.241316795,
523,5.769937038,523,1.238828897,
522,5.731828213,522,1.241706848,
521,5.720923424,521,1.242533803,
520,5.732020855,520,1.241692305,
519,5.728009224,519,1.241996288,
518,5.726149082,518,1.242137313,
517,5.731098175,517,1.241762161,
516,5.722050667,516,1.24244833,
515,5.69153738,515,1.244770408,
514,5.712925434,514,1.243141413,
513,5.712131023,513,1.243201852,
512,5.684705257,512,1.245292068,
511,5.707948685,511,1.243519902,
510,5.688239098,510,1.245022178,
509,5.704195499,509,1.243805647,
508,5.674553394,508,1.246068358,
507,5.661553383,507,1.247064352,
506,5.678754807,506,1.245746851,
505,5.68541193,505,1.245238066,
504,5.664489746,504,1.246839166,
503,5.658716679,503,1.247282028,
502,5.659136772,502,1.247249842,
501,5.678509712,501,1.245765686,
500,5.684251308,500,1.245326757,
499,5.643640041,499,1.248440742,
498,5.640325069,498,1.24869585,
497,5.632212162,497,1.249320984,
496,5.628033638,496,1.249643326,
495,5.65481329,495,1.24758172,
494,5.600792408,494,1.251750469,
493,5.642896652,493,1.248497963,
492,5.600931644,492,1.25173974,
491,5.591235638,491,1.252492189,
490,5.612714767,490,1.250827074,
489,5.585309982,489,1.252952695,
488,5.587524414,488,1.252780557,
487,5.566469193,487,1.254420161,
486,5.592561722,486,1.252389193,
485,5.592271805,485,1.252411723,
484,5.576581478,484,1.253631949,
483,5.549347878,483,1.255758047,
482,5.56191206,482,1.254775882,
481,5.583061218,481,1.253127575,
480,5.560097218,480,1.254917622,
479,5.557029724,479,1.255157232,
478,5.544265747,478,1.256155968,
477,5.529108047,477,1.257344961,
476,5.530292988,476,1.257251859,
475,5.541083813,475,1.256405234,
474,5.517419338,474,1.258263946,
473,5.521797657,473,1.25791955,
472,5.534747601,472,1.256902218,
471,5.555932045,471,1.255243063,
470,5.532733917,470,1.25706017,
469,5.530021191,469,1.257273197,
468,5.485395432,468,1.260792017,
467,5.502987385,467,1.259401441,
466,5.527295589,466,1.257487297,
465,5.520043373,465,1.258057475,
464,5.544228077,464,1.256158948,
463,5.476228714,463,1.261518359,
462,5.462944508,462,1.262573242,
461,5.470532894,461,1.261970401,
460,5.481271744,460,1.26111865,
459,5.453868866,459,1.263295293,
458,5.482370853,458,1.261031628,
457,5.449178219,457,1.263669014,
456,5.471482277,456,1.261895061,
455,5.448387146,455,1.263732076,
454,5.478878021,454,1.261308432,
453,5.471060753,453,1.261928439,
452,5.47097683,452,1.261935115,
451,5.482756615,451,1.261000991,
450,5.436452866,450,1.264684319,
449,5.464171886,449,1.26247561,
448,5.432744026,448,1.264980793,
447,5.440881252,447,1.264330745,
446,5.458518505,446,1.262925267,
445,5.409923553,445,1.266808867,
444,5.454660416,444,1.263232231,
443,5.392783165,443,1.268187046,
442,5.402848721,442,1.267377138,
441,5.431487083,441,1.265081286,
440,5.418406963,440,1.266128421,
439,5.419695377,439,1.266025066,
438,5.403416634,438,1.2673316,
437,5.422831535,437,1.265773892,
436,5.387342453,436,1.268625379,
435,5.410719872,435,1.266744971,
434,5.394512653,434,1.26804781,
433,5.425376415,433,1.265570164,
432,5.388589382,432,1.268524885,
431,5.365842819,431,1.27036202,
430,5.388823986,430,1.26850605,
429,5.374314308,429,1.269676924,
428,5.407624245,428,1.266993523,
427,5.382356644,427,1.269027472,
426,5.340253353,426,1.272438169,
425,5.372859955,425,1.269794464,
424,5.350000381,424,1.271646142,
423,5.385073185,423,1.268808365,
422,5.357624054,422,1.271027803,
421,5.368544102,421,1.270143509,
420,5.355242729,420,1.271220803,
419,5.332787037,419,1.273045778,
418,5.36306572,418,1.270586848,
417,5.343793392,417,1.272150397,
416,5.329530239,416,1.273311019,
415,5.361665249,415,1.270700336,
414,5.337124825,414,1.27269268,
413,5.308155537,413,1.275056362,
412,5.374236584,412,1.269683242,
411,5.348563194,411,1.271762848,
410,5.38184166,410,1.269069076,
409,5.336685658,409,1.272728443,
408,5.373274326,408,1.269760966,
407,5.347044945,407,1.27188623,
406,5.340569496,406,1.272412419,
405,5.334113121,405,1.272937775,
404,5.314424992,404,1.274543762,
403,5.342251301,403,1.272275686,
402,5.286381245,402,1.276841521,
401,5.300880909,401,1.275651932,
400,5.340223789,400,1.272440553,
399,5.30617094,399,1.275218725,
398,5.332400799,398,1.27307725,
397,5.328317165,397,1.273409963,
396,5.262463093,396,1.278810978,
395,5.379197598,395,1.26928246,
394,5.265176296,394,1.278587103,
393,5.338095188,393,1.272613645,
392,5.3047328,392,1.275336504,
391,5.365149975,391,1.270418167,
390,5.314186096,390,1.274563193,
389,5.337669849,389,1.272648335,
388,5.296383858,388,1.276020527,
387,5.335628033,387,1.272814512,
386,5.339773178,386,1.27247715,
385,5.321209908,385,1.273989558,
384,5.351914883,384,1.271490812,
383,5.347281456,383,1.271866918,
382,5.320027351,382,1.274086118,
381,5.370305061,381,1.270001054,
380,5.339609146,380,1.272490501,
379,5.400334835,379,1.267579317,
378,5.342386723,378,1.272264719,
377,5.322788715,377,1.273860812,
376,5.31178236,376,1.274759769,
375,5.292314529,375,1.276354313,
374,5.243518353,374,1.280377269,
373,5.392620564,373,1.268200159,
372,5.219305515,372,1.282387257,
371,5.255442619,371,1.279390693,
370,5.289818764,370,1.276559234,
369,5.348428249,369,1.271773815,
368,5.285211563,368,1.276937604,
367,5.330144405,367,1.27326107,
366,5.324222088,366,1.273743868,
365,5.356208801,365,1.271142483,
364,5.365798473,364,1.270365596,
363,5.264257431,363,1.27866292,
362,5.279071808,362,1.277442455,
361,5.207660198,361,1.283357382,
360,5.21586895,360,1.282673359,
359,5.349240303,359,1.271707892,
358,5.245420933,358,1.280219674,
357,5.258852005,357,1.27910912,
356,5.267500401,356,1.278395414,
355,5.218813896,355,1.282428145,
354,5.26886797,354,1.278282642,
353,5.299386024,353,1.275774479,
352,5.179824829,352,1.285684943,
351,5.270681381,351,1.278133273,
350,5.315812111,350,1.274430394,
349,5.450451374,349,1.263567567,
348,5.18855238,348,1.284953833,
347,5.221275806,347,1.282223344,
346,5.597060204,346,1.252040029,
345,5.511557579,345,1.258725643,
344,5.072777271,344,1.294754148,
343,5.266158581,343,1.278506041,
342,5.046516895,342,1.297008276,
341,5.377404213,341,1.269427299,
340,5.247496128,340,1.280047894,
339,4.976601124,339,1.303067207,
338,5.395778656,338,1.267945886,
337,5.227331638,337,1.281719923,
336,5.307096481,336,1.275143027,
335,5.524912834,335,1.257674575,
334,4.805735588,334,1.318240166,
333,5.210461617,333,1.283123851,
332,4.989925385,332,1.30190599,
331,4.912961006,331,1.308656693,
330,4.845369816,330,1.314673066,
329,5.0314641,329,1.298305631,
328,5.142540455,328,1.288822293,
327,5.070000648,327,1.29499197,
326,4.967298985,326,1.303879738,
325,5.227267265,325,1.281725287,
324,5.164117336,324,1.287003875,
323,5.036829472,323,1.297842741,
322,4.749237537,322,1.323376179,
321,5.278165817,321,1.277516961,
320,4.809835434,320,1.317869782,
319,4.876452446,319,1.311895967,
318,5.090231419,318,1.293262482,
317,4.838275909,317,1.315309405,
316,4.96378994,316,1.304186583,
315,4.744074821,315,1.323848486,
314,4.921135426,314,1.307934642,
313,4.976422787,313,1.303082705,
312,4.86408329,312,1.31299901,
311,4.862037182,311,1.313181758,
310,4.861615658,310,1.313219428,
309,4.720522881,309,1.32600987,
308,5.201516151,308,1.283869982,
307,4.733334541,307,1.324832797,
306,4.776073456,306,1.320928931,
305,4.718473434,305,1.326198459,
304,5.048687935,304,1.296821475,
303,4.902810097,303,1.309554935,
302,4.892459869,302,1.310472727,
301,4.719916821,301,1.32606566,
300,4.657820225,300,1.331817269,
299,4.783659935,299,1.320239663,
298,4.999845028,298,1.301043391,
297,4.528121471,297,1.344081879,
296,4.684714794,296,1.329316854,
295,4.488206863,295,1.347927094,
294,4.616733551,294,1.335665226,
293,4.790960789,293,1.319577456,
292,4.489295959,292,1.347821712,
291,4.645373344,291,1.332979321,
290,4.45086813,290,1.351555228,
289,4.531016827,289,1.343804359,
288,4.471517563,288,1.349545002,
287,4.584807396,287,1.338678837,
286,4.65447998,286,1.332128763,
285,4.596623421,285,1.337561131,
284,4.740139961,284,1.324208856,
283,4.679683685,283,1.329783559,
282,4.500442505,282,1.346744776,
281,4.449727535,281,1.35166657,
280,4.472418785,280,1.349457502,
279,4.698010921,279,1.328086019,
278,4.499010563,278,1.346882939,
277,4.416427612,277,1.354928851,
276,4.493826866,276,1.347383618,
275,4.679339409,275,1.329815507,
274,4.33413744,274,1.36309731,
273,4.51304388,273,1.345530391,
272,4.258698463,272,1.370723128,
271,4.299506664,271,1.36658144,
270,4.416572094,270,1.354914665,
269,4.390033722,269,1.357532144,
268,4.369665146,268,1.359551787,
267,4.172694206,267,1.379583478,
266,4.30202055,266,1.366327524,
265,4.059419632,265,1.391535997,
264,4.193104744,264,1.377464294,
263,4.136743069,263,1.383341432,
262,4.162202835,262,1.380676746,
261,4.138065338,261,1.383202672,
260,3.998656988,260,1.398085833,
259,4.032502174,259,1.394425392,
258,4.010252476,258,1.396828294,
257,4.076182842,257,1.389746308,
256,4.02503109,256,1.39523077,
255,4.037353992,255,1.393903136,
254,3.865976572,254,1.412740827,
253,3.983567715,253,1.399727821,
252,3.912833214,252,1.407508612,
251,3.814954042,251,1.418510675,
250,3.945874453,250,1.403856754,

Plaque Gravee-1,
Plaque Gravee-1
Collection Time: 2025-03-14 4:18:14 PM
Operator Name  :
Scan Version 6.2.0.1588
Parameter List :
Instrument  Cary 7000
Instrument Version  3.00
Method Log     :
Method Name    :
Date/Time stamp: 2025-03-14 3:50:25 PM
Method Modifications:
ConcentrationReportSelected Changed: 2025-03-14 3:50:25 PM, Old:Choice 0, New:Choice 1
ConcentrationReportSelected Changed: 2025-03-14 3:50:25 PM, Old:ON, New:Choice 0
MCAReportSelected Changed: 2025-03-14 3:50:25 PM, Old:Choice 0, New:Choice 1
MCAReportSelected Changed: 2025-03-14 3:50:25 PM, Old:ON, New:Choice 0
X Start nm Changed: 2025-03-14 3:54:03 PM, Old:800.000, New:2500.000
UVVIS Scan Rate nm Changed: 2025-03-14 3:54:03 PM, Old:  602.007, New:  600.000
NIR Scan Rate nm Changed: 2025-03-14 3:54:03 PM, Old:  602.007, New:  600.000
Y mode Changed: 2025-03-14 3:54:03 PM, Old:Abs, New:%R
Y min Changed: 2025-03-14 3:54:03 PM, Old:     0.00, New:    -5.00
Y max Changed: 2025-03-14 3:54:03 PM, Old:     1.00, New:   105.00
Baseline Correction Changed: 2025-03-14 3:54:03 PM, Old:0, New:2
Sipper Type Changed: 2025-03-14 3:54:03 PM, Old:Internal RSA, New:External sipper
X Stop nm Changed: 2025-03-14 4:06:27 PM, Old:200.000, New:250.000
End Method Modifications
<Current Wavelength> , 250.000
<SBW (nm)> , 2.00
<Energy> , 3311.31
<Slit Height> , Full

"Convert to Abs(""Plaque Gravee-1""):Plaque Gravee-1,"
Plaque Gravee-1
Collection Time: 2025-03-14 4:18:14 PM
Operator Name  :
Scan Version 6.2.0.1588
Parameter List :
Instrument  Cary 7000
Instrument Version  3.00
Method Log     :
Method Name    :
Date/Time stamp: 2025-03-14 3:50:25 PM
Method Modifications:
ConcentrationReportSelected Changed: 2025-03-14 3:50:25 PM, Old:Choice 0, New:Choice 1
ConcentrationReportSelected Changed: 2025-03-14 3:50:25 PM, Old:ON, New:Choice 0
MCAReportSelected Changed: 2025-03-14 3:50:25 PM, Old:Choice 0, New:Choice 1
MCAReportSelected Changed: 2025-03-14 3:50:25 PM, Old:ON, New:Choice 0
X Start nm Changed: 2025-03-14 3:54:03 PM, Old:800.000, New:2500.000
UVVIS Scan Rate nm Changed: 2025-03-14 3:54:03 PM, Old:  602.007, New:  600.000
NIR Scan Rate nm Changed: 2025-03-14 3:54:03 PM, Old:  602.007, New:  600.000
Y mode Changed: 2025-03-14 3:54:03 PM, Old:Abs, New:%R
Y min Changed: 2025-03-14 3:54:03 PM, Old:     0.00, New:    -5.00
Y max Changed: 2025-03-14 3:54:03 PM, Old:     1.00, New:   105.00
Baseline Correction Changed: 2025-03-14 3:54:03 PM, Old:0, New:2
Sipper Type Changed: 2025-03-14 3:54:03 PM, Old:Internal RSA, New:External sipper
X Stop nm Changed: 2025-03-14 4:06:27 PM, Old:200.000, New:250.000
End Method Modifications
<Current Wavelength> , 250.000
<SBW (nm)> , 2.00
<Energy> , 3311.31
<Slit Height> , Full
All data points copied from continuum 'Plaque Gravee-1' to create 'Continuum 6'
Y data converted from %R to Abs
"Continuum name changed to 'Convert to Abs(""Plaque Gravee-1""):Plaque Gravee-1'"